,BVP,timestamp
1,-0.0,1637343683.0
2,-0.0,1637343683.015625
3,-0.0,1637343683.03125
4,-0.0,1637343683.046875
5,-0.0,1637343683.0625
6,-0.0,1637343683.078125
7,-0.0,1637343683.09375
8,-0.0,1637343683.109375
9,-0.0,1637343683.125
10,-0.0,1637343683.140625
11,0.0,1637343683.15625
12,0.01,1637343683.171875
13,0.01,1637343683.1875
14,-0.0,1637343683.203125
15,-0.03,1637343683.21875
16,-0.05,1637343683.234375
17,-0.05,1637343683.25
18,0.0,1637343683.265625
19,0.13,1637343683.28125
20,0.36,1637343683.296875
21,0.66,1637343683.3125
22,1.01,1637343683.328125
23,1.37,1637343683.34375
24,1.72,1637343683.359375
25,2.06,1637343683.375
26,2.4,1637343683.390625
27,2.79,1637343683.40625
28,3.24,1637343683.421875
29,3.8,1637343683.4375
30,4.42,1637343683.453125
31,5.06,1637343683.46875
32,5.66,1637343683.484375
33,6.2,1637343683.5
34,6.68,1637343683.515625
35,7.15,1637343683.53125
36,7.68,1637343683.546875
37,8.31,1637343683.5625
38,9.14,1637343683.578125
39,10.09,1637343683.59375
40,11.04,1637343683.609375
41,11.88,1637343683.625
42,12.56,1637343683.640625
43,13.14,1637343683.65625
44,13.76,1637343683.671875
45,14.65,1637343683.6875
46,15.96,1637343683.703125
47,17.91,1637343683.71875
48,20.32,1637343683.734375
49,22.9,1637343683.75
50,25.38,1637343683.765625
51,27.58,1637343683.78125
52,29.57,1637343683.796875
53,31.68,1637343683.8125
54,34.32,1637343683.828125
55,37.81,1637343683.84375
56,42.54,1637343683.859375
57,48.15,1637343683.875
58,54.1,1637343683.890625
59,59.83,1637343683.90625
60,64.97,1637343683.921875
61,69.58,1637343683.9375
62,74.14,1637343683.953125
63,79.34,1637343683.96875
64,85.71,1637343683.984375
65,93.76,1637343684.0
66,103.0,1637343684.015625
67,112.62,1637343684.03125
68,121.73,1637343684.046875
69,129.77,1637343684.0625
70,136.75,1637343684.078125
71,143.3,1637343684.09375
72,150.75,1637343684.109375
73,157.77,1637343684.125
74,166.64,1637343684.140625
75,177.95,1637343684.15625
76,191.79,1637343684.171875
77,206.97,1637343684.1875
78,220.57,1637343684.203125
79,228.25,1637343684.21875
80,225.36,1637343684.234375
81,208.53,1637343684.25
82,176.87,1637343684.265625
83,132.76,1637343684.28125
84,80.05,1637343684.296875
85,23.07,1637343684.3125
86,-34.94,1637343684.328125
87,-92.44,1637343684.34375
88,-149.16,1637343684.359375
89,-205.23,1637343684.375
90,-260.37,1637343684.390625
91,-313.74,1637343684.40625
92,-363.88,1637343684.421875
93,-409.84,1637343684.4375
94,-450.91,1637343684.453125
95,-486.5,1637343684.46875
96,-515.74,1637343684.484375
97,-537.22,1637343684.5
98,-549.2,1637343684.515625
99,-549.93,1637343684.53125
100,-538.32,1637343684.546875
101,-514.13,1637343684.5625
102,-478.57,1637343684.578125
103,-433.74,1637343684.59375
104,-382.27,1637343684.609375
105,-326.79,1637343684.625
106,-269.56,1637343684.640625
107,-212.3,1637343684.65625
108,-156.26,1637343684.671875
109,-102.49,1637343684.6875
110,-51.85,1637343684.703125
111,-5.32,1637343684.71875
112,36.24,1637343684.734375
113,72.15,1637343684.75
114,102.15,1637343684.765625
115,126.38,1637343684.78125
116,145.34,1637343684.796875
117,159.74,1637343684.8125
118,170.29,1637343684.828125
119,177.62,1637343684.84375
120,182.11,1637343684.859375
121,184.06,1637343684.875
122,183.69,1637343684.890625
123,181.28,1637343684.90625
124,177.18,1637343684.921875
125,171.79,1637343684.9375
126,165.53,1637343684.953125
127,158.74,1637343684.96875
128,151.67,1637343684.984375
129,144.46,1637343685.0
130,137.18,1637343685.015625
131,129.87,1637343685.03125
132,122.59,1637343685.046875
133,115.38,1637343685.0625
134,108.34,1637343685.078125
135,101.51,1637343685.09375
136,94.97,1637343685.109375
137,88.74,1637343685.125
138,82.84,1637343685.140625
139,77.28,1637343685.15625
140,72.06,1637343685.171875
141,67.2,1637343685.1875
142,62.71,1637343685.203125
143,58.6,1637343685.21875
144,54.87,1637343685.234375
145,51.52,1637343685.25
146,48.55,1637343685.265625
147,45.93,1637343685.28125
148,43.66,1637343685.296875
149,41.75,1637343685.3125
150,40.2,1637343685.328125
151,39.02,1637343685.34375
152,38.18,1637343685.359375
153,37.69,1637343685.375
154,37.5,1637343685.390625
155,37.57,1637343685.40625
156,37.82,1637343685.421875
157,38.11,1637343685.4375
158,38.32,1637343685.453125
159,38.27,1637343685.46875
160,37.79,1637343685.484375
161,36.69,1637343685.5
162,34.86,1637343685.515625
163,32.19,1637343685.53125
164,28.65,1637343685.546875
165,24.3,1637343685.5625
166,19.2,1637343685.578125
167,13.53,1637343685.59375
168,7.51,1637343685.609375
169,1.4,1637343685.625
170,-4.54,1637343685.640625
171,-10.04,1637343685.65625
172,-14.9,1637343685.671875
173,-18.93,1637343685.6875
174,-22.04,1637343685.703125
175,-24.18,1637343685.71875
176,-25.37,1637343685.734375
177,-25.68,1637343685.75
178,-25.23,1637343685.765625
179,-24.15,1637343685.78125
180,-22.6,1637343685.796875
181,-20.69,1637343685.8125
182,-18.57,1637343685.828125
183,-16.3,1637343685.84375
184,-13.96,1637343685.859375
185,-11.57,1637343685.875
186,-9.16,1637343685.890625
187,-6.76,1637343685.90625
188,-4.37,1637343685.921875
189,-1.97,1637343685.9375
190,0.46,1637343685.953125
191,2.93,1637343685.96875
192,5.47,1637343685.984375
193,8.1,1637343686.0
194,10.87,1637343686.015625
195,13.73,1637343686.03125
196,16.67,1637343686.046875
197,19.67,1637343686.0625
198,22.74,1637343686.078125
199,25.89,1637343686.09375
200,29.14,1637343686.109375
201,32.51,1637343686.125
202,36.05,1637343686.140625
203,39.83,1637343686.15625
204,43.76,1637343686.171875
205,47.79,1637343686.1875
206,51.92,1637343686.203125
207,56.14,1637343686.21875
208,60.48,1637343686.234375
209,64.97,1637343686.25
210,69.66,1637343686.265625
211,74.63,1637343686.28125
212,79.97,1637343686.296875
213,85.55,1637343686.3125
214,91.27,1637343686.328125
215,97.06,1637343686.34375
216,102.9,1637343686.359375
217,108.75,1637343686.375
218,114.61,1637343686.390625
219,120.48,1637343686.40625
220,126.37,1637343686.421875
221,132.35,1637343686.4375
222,138.12,1637343686.453125
223,143.45,1637343686.46875
224,148.13,1637343686.484375
225,151.94,1637343686.5
226,154.57,1637343686.515625
227,155.66,1637343686.53125
228,154.66,1637343686.546875
229,150.84,1637343686.5625
230,145.57,1637343686.578125
231,139.35,1637343686.59375
232,132.49,1637343686.609375
233,125.21,1637343686.625
234,117.68,1637343686.640625
235,110.03,1637343686.65625
236,102.41,1637343686.671875
237,94.95,1637343686.6875
238,87.84,1637343686.703125
239,81.26,1637343686.71875
240,75.06,1637343686.734375
241,69.19,1637343686.75
242,63.64,1637343686.765625
243,58.38,1637343686.78125
244,53.44,1637343686.796875
245,48.83,1637343686.8125
246,44.58,1637343686.828125
247,40.75,1637343686.84375
248,37.41,1637343686.859375
249,34.38,1637343686.875
250,31.57,1637343686.890625
251,28.91,1637343686.90625
252,26.35,1637343686.921875
253,23.86,1637343686.9375
254,21.44,1637343686.953125
255,19.09,1637343686.96875
256,16.85,1637343686.984375
257,14.78,1637343687.0
258,12.79,1637343687.015625
259,10.85,1637343687.03125
260,8.96,1637343687.046875
261,7.15,1637343687.0625
262,5.43,1637343687.078125
263,3.85,1637343687.09375
264,2.46,1637343687.109375
265,1.29,1637343687.125
266,0.38,1637343687.140625
267,-0.31,1637343687.15625
268,-0.84,1637343687.171875
269,-1.23,1637343687.1875
270,-1.53,1637343687.203125
271,-1.79,1637343687.21875
272,-2.02,1637343687.234375
273,-2.27,1637343687.25
274,-2.53,1637343687.265625
275,-2.81,1637343687.28125
276,-3.11,1637343687.296875
277,-3.43,1637343687.3125
278,-3.76,1637343687.328125
279,-4.06,1637343687.34375
280,-4.31,1637343687.359375
281,-4.5,1637343687.375
282,-4.6,1637343687.390625
283,-4.62,1637343687.40625
284,-4.58,1637343687.421875
285,-4.47,1637343687.4375
286,-4.35,1637343687.453125
287,-4.22,1637343687.46875
288,-4.13,1637343687.484375
289,-4.09,1637343687.5
290,-4.11,1637343687.515625
291,-4.22,1637343687.53125
292,-4.4,1637343687.546875
293,-4.64,1637343687.5625
294,-4.91,1637343687.578125
295,-5.23,1637343687.59375
296,-5.54,1637343687.609375
297,-5.84,1637343687.625
298,-6.11,1637343687.640625
299,-6.34,1637343687.65625
300,-6.53,1637343687.671875
301,-6.67,1637343687.6875
302,-6.77,1637343687.703125
303,-6.83,1637343687.71875
304,-6.85,1637343687.734375
305,-6.85,1637343687.75
306,-6.86,1637343687.765625
307,-6.93,1637343687.78125
308,-7.09,1637343687.796875
309,-7.37,1637343687.8125
310,-7.78,1637343687.828125
311,-8.31,1637343687.84375
312,-8.93,1637343687.859375
313,-9.6,1637343687.875
314,-10.29,1637343687.890625
315,-11.01,1637343687.90625
316,-11.75,1637343687.921875
317,-12.52,1637343687.9375
318,-13.33,1637343687.953125
319,-14.15,1637343687.96875
320,-14.93,1637343687.984375
321,-15.63,1637343688.0
322,-16.19,1637343688.015625
323,-16.63,1637343688.03125
324,-16.99,1637343688.046875
325,-17.36,1637343688.0625
326,-17.83,1637343688.078125
327,-18.48,1637343688.09375
328,-19.31,1637343688.109375
329,-20.25,1637343688.125
330,-21.21,1637343688.140625
331,-22.1,1637343688.15625
332,-22.92,1637343688.171875
333,-23.76,1637343688.1875
334,-24.81,1637343688.203125
335,-26.28,1637343688.21875
336,-28.29,1637343688.234375
337,-30.82,1637343688.25
338,-33.7,1637343688.265625
339,-36.66,1637343688.28125
340,-39.5,1637343688.296875
341,-42.17,1637343688.3125
342,-44.87,1637343688.328125
343,-48.0,1637343688.34375
344,-51.97,1637343688.359375
345,-57.05,1637343688.375
346,-63.18,1637343688.390625
347,-70.03,1637343688.40625
348,-77.05,1637343688.421875
349,-83.81,1637343688.4375
350,-90.19,1637343688.453125
351,-96.47,1637343688.46875
352,-103.27,1637343688.484375
353,-111.3,1637343688.5
354,-120.98,1637343688.515625
355,-132.28,1637343688.53125
356,-144.72,1637343688.546875
357,-157.61,1637343688.5625
358,-170.3,1637343688.578125
359,-182.61,1637343688.59375
360,-194.73,1637343688.609375
361,-207.27,1637343688.625
362,-221.07,1637343688.640625
363,-237.02,1637343688.65625
364,-255.99,1637343688.671875
365,-278.5,1637343688.6875
366,-304.16,1637343688.703125
367,-331.23,1637343688.71875
368,-356.56,1637343688.734375
369,-376.16,1637343688.75
370,-386.46,1637343688.765625
371,-385.56,1637343688.78125
372,-373.93,1637343688.796875
373,-354.13,1637343688.8125
374,-329.67,1637343688.828125
375,-303.61,1637343688.84375
376,-277.69,1637343688.859375
377,-252.33,1637343688.875
378,-227.33,1637343688.890625
379,-202.61,1637343688.90625
380,-178.74,1637343688.921875
381,-156.67,1637343688.9375
382,-137.19,1637343688.953125
383,-120.46,1637343688.96875
384,-105.9,1637343688.984375
385,-92.56,1637343689.0
386,-79.62,1637343689.015625
387,-66.7,1637343689.03125
388,-54.03,1637343689.046875
389,-42.21,1637343689.0625
390,-31.76,1637343689.078125
391,-22.87,1637343689.09375
392,-15.24,1637343689.109375
393,-8.34,1637343689.125
394,-1.6,1637343689.140625
395,5.2,1637343689.15625
396,11.98,1637343689.171875
397,18.34,1637343689.1875
398,23.89,1637343689.203125
399,28.38,1637343689.21875
400,31.77,1637343689.234375
401,34.27,1637343689.25
402,36.13,1637343689.265625
403,37.6,1637343689.28125
404,38.79,1637343689.296875
405,39.66,1637343689.3125
406,40.1,1637343689.328125
407,39.91,1637343689.34375
408,38.99,1637343689.359375
409,37.35,1637343689.375
410,35.22,1637343689.390625
411,32.9,1637343689.40625
412,30.79,1637343689.421875
413,29.19,1637343689.4375
414,28.2,1637343689.453125
415,27.84,1637343689.46875
416,27.94,1637343689.484375
417,28.26,1637343689.5
418,28.57,1637343689.515625
419,28.65,1637343689.53125
420,28.43,1637343689.546875
421,27.89,1637343689.5625
422,27.21,1637343689.578125
423,26.53,1637343689.59375
424,25.98,1637343689.609375
425,25.61,1637343689.625
426,25.33,1637343689.640625
427,25.0,1637343689.65625
428,24.47,1637343689.671875
429,23.58,1637343689.6875
430,22.25,1637343689.703125
431,20.53,1637343689.71875
432,18.59,1637343689.734375
433,16.67,1637343689.75
434,15.04,1637343689.765625
435,13.79,1637343689.78125
436,12.81,1637343689.796875
437,11.76,1637343689.8125
438,10.27,1637343689.828125
439,8.06,1637343689.84375
440,5.15,1637343689.859375
441,1.84,1637343689.875
442,-1.41,1637343689.890625
443,-4.04,1637343689.90625
444,-5.6,1637343689.921875
445,-5.77,1637343689.9375
446,-4.37,1637343689.953125
447,-1.48,1637343689.96875
448,2.6,1637343689.984375
449,7.33,1637343690.0
450,12.0,1637343690.015625
451,15.91,1637343690.03125
452,18.59,1637343690.046875
453,19.9,1637343690.0625
454,20.15,1637343690.078125
455,19.94,1637343690.09375
456,19.88,1637343690.109375
457,20.41,1637343690.125
458,21.59,1637343690.140625
459,23.18,1637343690.15625
460,24.77,1637343690.171875
461,25.97,1637343690.1875
462,26.63,1637343690.203125
463,26.89,1637343690.21875
464,27.0,1637343690.234375
465,27.18,1637343690.25
466,27.54,1637343690.265625
467,28.04,1637343690.28125
468,28.54,1637343690.296875
469,28.93,1637343690.3125
470,29.16,1637343690.328125
471,29.24,1637343690.34375
472,29.17,1637343690.359375
473,28.99,1637343690.375
474,28.69,1637343690.390625
475,28.26,1637343690.40625
476,27.67,1637343690.421875
477,26.83,1637343690.4375
478,25.67,1637343690.453125
479,24.13,1637343690.46875
480,22.33,1637343690.484375
481,20.48,1637343690.5
482,18.86,1637343690.515625
483,17.68,1637343690.53125
484,17.01,1637343690.546875
485,16.73,1637343690.5625
486,16.62,1637343690.578125
487,16.51,1637343690.59375
488,16.23,1637343690.609375
489,15.69,1637343690.625
490,14.78,1637343690.640625
491,13.41,1637343690.65625
492,11.55,1637343690.671875
493,9.32,1637343690.6875
494,7.04,1637343690.703125
495,5.09,1637343690.71875
496,3.74,1637343690.734375
497,3.02,1637343690.75
498,2.68,1637343690.765625
499,2.34,1637343690.78125
500,1.64,1637343690.796875
501,0.47,1637343690.8125
502,-1.07,1637343690.828125
503,-2.71,1637343690.84375
504,-4.24,1637343690.859375
505,-5.61,1637343690.875
506,-6.97,1637343690.890625
507,-8.57,1637343690.90625
508,-10.57,1637343690.921875
509,-13.03,1637343690.9375
510,-15.77,1637343690.953125
511,-18.52,1637343690.96875
512,-20.85,1637343690.984375
513,-22.35,1637343691.0
514,-22.59,1637343691.015625
515,-21.26,1637343691.03125
516,-18.29,1637343691.046875
517,-13.92,1637343691.0625
518,-8.66,1637343691.078125
519,-3.26,1637343691.09375
520,1.54,1637343691.109375
521,5.24,1637343691.125
522,7.65,1637343691.140625
523,8.97,1637343691.15625
524,9.62,1637343691.171875
525,10.08,1637343691.1875
526,10.74,1637343691.203125
527,11.8,1637343691.21875
528,13.35,1637343691.234375
529,15.29,1637343691.25
530,17.42,1637343691.265625
531,19.43,1637343691.28125
532,21.02,1637343691.296875
533,21.97,1637343691.3125
534,22.16,1637343691.328125
535,21.7,1637343691.34375
536,20.86,1637343691.359375
537,19.97,1637343691.375
538,19.28,1637343691.390625
539,18.91,1637343691.40625
540,18.83,1637343691.421875
541,18.87,1637343691.4375
542,18.91,1637343691.453125
543,18.87,1637343691.46875
544,18.74,1637343691.484375
545,18.54,1637343691.5
546,18.29,1637343691.515625
547,17.96,1637343691.53125
548,17.54,1637343691.546875
549,17.01,1637343691.5625
550,16.36,1637343691.578125
551,15.59,1637343691.59375
552,14.68,1637343691.609375
553,13.66,1637343691.625
554,12.66,1637343691.640625
555,11.86,1637343691.65625
556,11.42,1637343691.671875
557,11.48,1637343691.6875
558,11.94,1637343691.703125
559,12.57,1637343691.71875
560,13.04,1637343691.734375
561,13.1,1637343691.75
562,12.61,1637343691.765625
563,11.64,1637343691.78125
564,10.34,1637343691.796875
565,8.83,1637343691.8125
566,7.2,1637343691.828125
567,5.46,1637343691.84375
568,3.63,1637343691.859375
569,1.71,1637343691.875
570,-0.2,1637343691.890625
571,-2.05,1637343691.90625
572,-3.87,1637343691.921875
573,-5.77,1637343691.9375
574,-7.83,1637343691.953125
575,-10.05,1637343691.96875
576,-12.28,1637343691.984375
577,-14.3,1637343692.0
578,-15.94,1637343692.015625
579,-17.19,1637343692.03125
580,-18.31,1637343692.046875
581,-19.64,1637343692.0625
582,-21.43,1637343692.078125
583,-23.71,1637343692.09375
584,-26.06,1637343692.109375
585,-27.85,1637343692.125
586,-28.37,1637343692.140625
587,-27.14,1637343692.15625
588,-24.12,1637343692.171875
589,-19.66,1637343692.1875
590,-14.45,1637343692.203125
591,-9.3,1637343692.21875
592,-4.91,1637343692.234375
593,-1.65,1637343692.25
594,0.43,1637343692.265625
595,1.59,1637343692.28125
596,2.26,1637343692.296875
597,2.81,1637343692.3125
598,3.52,1637343692.328125
599,4.52,1637343692.34375
600,5.84,1637343692.359375
601,7.45,1637343692.375
602,9.26,1637343692.390625
603,11.13,1637343692.40625
604,12.89,1637343692.421875
605,14.27,1637343692.4375
606,15.07,1637343692.453125
607,15.22,1637343692.46875
608,14.82,1637343692.484375
609,14.16,1637343692.5
610,13.63,1637343692.515625
611,13.55,1637343692.53125
612,14.07,1637343692.546875
613,15.14,1637343692.5625
614,16.5,1637343692.578125
615,17.81,1637343692.59375
616,18.81,1637343692.609375
617,19.34,1637343692.625
618,19.45,1637343692.640625
619,19.32,1637343692.65625
620,19.13,1637343692.671875
621,19.02,1637343692.6875
622,19.01,1637343692.703125
623,18.96,1637343692.71875
624,18.73,1637343692.734375
625,18.14,1637343692.75
626,17.16,1637343692.765625
627,15.81,1637343692.78125
628,14.18,1637343692.796875
629,12.42,1637343692.8125
630,10.65,1637343692.828125
631,9.0,1637343692.84375
632,7.63,1637343692.859375
633,6.61,1637343692.875
634,5.92,1637343692.890625
635,5.41,1637343692.90625
636,4.84,1637343692.921875
637,3.99,1637343692.9375
638,2.74,1637343692.953125
639,1.11,1637343692.96875
640,-0.69,1637343692.984375
641,-2.44,1637343693.0
642,-3.99,1637343693.015625
643,-5.35,1637343693.03125
644,-6.65,1637343693.046875
645,-8.12,1637343693.0625
646,-9.98,1637343693.078125
647,-12.34,1637343693.09375
648,-15.15,1637343693.109375
649,-18.22,1637343693.125
650,-21.14,1637343693.140625
651,-23.41,1637343693.15625
652,-24.49,1637343693.171875
653,-23.93,1637343693.1875
654,-21.57,1637343693.203125
655,-17.58,1637343693.21875
656,-12.48,1637343693.234375
657,-7.07,1637343693.25
658,-2.14,1637343693.265625
659,1.73,1637343693.28125
660,4.33,1637343693.296875
661,5.87,1637343693.3125
662,6.81,1637343693.328125
663,7.67,1637343693.34375
664,8.84,1637343693.359375
665,10.41,1637343693.375
666,12.24,1637343693.390625
667,14.04,1637343693.40625
668,15.54,1637343693.421875
669,16.63,1637343693.4375
670,17.39,1637343693.453125
671,18.0,1637343693.46875
672,18.61,1637343693.484375
673,19.27,1637343693.5
674,19.87,1637343693.515625
675,20.26,1637343693.53125
676,20.31,1637343693.546875
677,20.02,1637343693.5625
678,19.47,1637343693.578125
679,18.74,1637343693.59375
680,17.87,1637343693.609375
681,16.87,1637343693.625
682,15.74,1637343693.640625
683,14.56,1637343693.65625
684,13.47,1637343693.671875
685,12.68,1637343693.6875
686,12.21,1637343693.703125
687,11.97,1637343693.71875
688,11.68,1637343693.734375
689,11.05,1637343693.75
690,9.89,1637343693.765625
691,8.27,1637343693.78125
692,6.43,1637343693.796875
693,4.69,1637343693.8125
694,3.26,1637343693.828125
695,2.22,1637343693.84375
696,1.51,1637343693.859375
697,1.0,1637343693.875
698,0.59,1637343693.890625
699,0.11,1637343693.90625
700,-0.52,1637343693.921875
701,-1.36,1637343693.9375
702,-2.51,1637343693.953125
703,-3.85,1637343693.96875
704,-5.24,1637343693.984375
705,-6.35,1637343694.0
706,-6.9,1637343694.015625
707,-6.71,1637343694.03125
708,-5.83,1637343694.046875
709,-4.48,1637343694.0625
710,-3.08,1637343694.078125
711,-2.05,1637343694.09375
712,-1.74,1637343694.109375
713,-2.44,1637343694.125
714,-4.22,1637343694.140625
715,-7.05,1637343694.15625
716,-10.75,1637343694.171875
717,-15.03,1637343694.1875
718,-19.48,1637343694.203125
719,-23.6,1637343694.21875
720,-26.83,1637343694.234375
721,-28.66,1637343694.25
722,-28.69,1637343694.265625
723,-26.8,1637343694.28125
724,-23.13,1637343694.296875
725,-18.11,1637343694.3125
726,-12.4,1637343694.328125
727,-6.75,1637343694.34375
728,-1.88,1637343694.359375
729,1.71,1637343694.375
730,3.9,1637343694.390625
731,4.91,1637343694.40625
732,5.26,1637343694.421875
733,5.61,1637343694.4375
734,6.39,1637343694.453125
735,7.79,1637343694.46875
736,9.68,1637343694.484375
737,11.78,1637343694.5
738,13.82,1637343694.515625
739,15.66,1637343694.53125
740,17.28,1637343694.546875
741,18.67,1637343694.5625
742,19.73,1637343694.578125
743,20.33,1637343694.59375
744,20.44,1637343694.609375
745,20.19,1637343694.625
746,19.86,1637343694.640625
747,19.81,1637343694.65625
748,20.2,1637343694.671875
749,20.93,1637343694.6875
750,21.68,1637343694.703125
751,22.1,1637343694.71875
752,21.99,1637343694.734375
753,21.41,1637343694.75
754,20.64,1637343694.765625
755,19.91,1637343694.78125
756,19.36,1637343694.796875
757,18.89,1637343694.8125
758,18.32,1637343694.828125
759,17.45,1637343694.84375
760,16.23,1637343694.859375
761,14.66,1637343694.875
762,12.8,1637343694.890625
763,10.75,1637343694.90625
764,8.58,1637343694.921875
765,6.41,1637343694.9375
766,4.38,1637343694.953125
767,2.68,1637343694.96875
768,1.49,1637343694.984375
769,0.83,1637343695.0
770,0.57,1637343695.015625
771,0.43,1637343695.03125
772,0.2,1637343695.046875
773,-0.25,1637343695.0625
774,-0.85,1637343695.078125
775,-1.46,1637343695.09375
776,-1.97,1637343695.109375
777,-2.42,1637343695.125
778,-3.01,1637343695.140625
779,-3.95,1637343695.15625
780,-5.33,1637343695.171875
781,-7.11,1637343695.1875
782,-9.05,1637343695.203125
783,-10.92,1637343695.21875
784,-12.51,1637343695.234375
785,-13.81,1637343695.25
786,-14.95,1637343695.265625
787,-16.13,1637343695.28125
788,-17.65,1637343695.296875
789,-19.77,1637343695.3125
790,-22.62,1637343695.328125
791,-26.13,1637343695.34375
792,-29.9,1637343695.359375
793,-33.29,1637343695.375
794,-35.54,1637343695.390625
795,-36.0,1637343695.40625
796,-34.4,1637343695.421875
797,-30.87,1637343695.4375
798,-25.95,1637343695.453125
799,-20.38,1637343695.46875
800,-14.93,1637343695.484375
801,-10.16,1637343695.5
802,-6.39,1637343695.515625
803,-3.65,1637343695.53125
804,-1.69,1637343695.546875
805,-0.11,1637343695.5625
806,1.56,1637343695.578125
807,3.71,1637343695.59375
808,6.53,1637343695.609375
809,9.93,1637343695.625
810,13.56,1637343695.640625
811,16.99,1637343695.65625
812,19.86,1637343695.671875
813,22.03,1637343695.6875
814,23.57,1637343695.703125
815,24.7,1637343695.71875
816,25.61,1637343695.734375
817,26.37,1637343695.75
818,26.93,1637343695.765625
819,27.16,1637343695.78125
820,27.0,1637343695.796875
821,26.44,1637343695.8125
822,25.62,1637343695.828125
823,24.6,1637343695.84375
824,23.46,1637343695.859375
825,22.2,1637343695.875
826,20.78,1637343695.890625
827,19.25,1637343695.90625
828,17.71,1637343695.921875
829,16.28,1637343695.9375
830,15.09,1637343695.953125
831,14.2,1637343695.96875
832,13.55,1637343695.984375
833,13.02,1637343696.0
834,12.49,1637343696.015625
835,11.86,1637343696.03125
836,11.09,1637343696.046875
837,10.13,1637343696.0625
838,8.91,1637343696.078125
839,7.43,1637343696.09375
840,5.75,1637343696.109375
841,3.99,1637343696.125
842,2.35,1637343696.140625
843,0.96,1637343696.15625
844,-0.14,1637343696.171875
845,-1.09,1637343696.1875
846,-2.09,1637343696.203125
847,-3.31,1637343696.21875
848,-4.83,1637343696.234375
849,-6.58,1637343696.25
850,-8.47,1637343696.265625
851,-10.37,1637343696.28125
852,-12.31,1637343696.296875
853,-14.43,1637343696.3125
854,-16.88,1637343696.328125
855,-19.78,1637343696.34375
856,-23.04,1637343696.359375
857,-26.36,1637343696.375
858,-29.28,1637343696.390625
859,-31.33,1637343696.40625
860,-32.1,1637343696.421875
861,-31.37,1637343696.4375
862,-29.17,1637343696.453125
863,-25.66,1637343696.46875
864,-21.18,1637343696.484375
865,-16.16,1637343696.5
866,-11.05,1637343696.515625
867,-6.35,1637343696.53125
868,-2.46,1637343696.546875
869,0.42,1637343696.5625
870,2.33,1637343696.578125
871,3.56,1637343696.59375
872,4.52,1637343696.609375
873,5.56,1637343696.625
874,6.88,1637343696.640625
875,8.48,1637343696.65625
876,10.27,1637343696.671875
877,12.12,1637343696.6875
878,13.92,1637343696.703125
879,15.62,1637343696.71875
880,17.16,1637343696.734375
881,18.45,1637343696.75
882,19.4,1637343696.765625
883,19.99,1637343696.78125
884,20.3,1637343696.796875
885,20.47,1637343696.8125
886,20.64,1637343696.828125
887,20.89,1637343696.84375
888,21.22,1637343696.859375
889,21.66,1637343696.875
890,22.16,1637343696.890625
891,22.7,1637343696.90625
892,23.21,1637343696.921875
893,23.56,1637343696.9375
894,23.59,1637343696.953125
895,23.17,1637343696.96875
896,22.27,1637343696.984375
897,20.91,1637343697.0
898,19.26,1637343697.015625
899,17.5,1637343697.03125
900,15.8,1637343697.046875
901,14.29,1637343697.0625
902,13.03,1637343697.078125
903,12.0,1637343697.09375
904,11.09,1637343697.109375
905,10.18,1637343697.125
906,9.14,1637343697.140625
907,7.94,1637343697.15625
908,6.68,1637343697.171875
909,5.51,1637343697.1875
910,4.57,1637343697.203125
911,3.93,1637343697.21875
912,3.57,1637343697.234375
913,3.42,1637343697.25
914,3.37,1637343697.265625
915,3.37,1637343697.28125
916,3.36,1637343697.296875
917,3.27,1637343697.3125
918,2.99,1637343697.328125
919,2.41,1637343697.34375
920,1.42,1637343697.359375
921,0.06,1637343697.375
922,-1.63,1637343697.390625
923,-3.6,1637343697.40625
924,-5.82,1637343697.421875
925,-8.3,1637343697.4375
926,-11.04,1637343697.453125
927,-14.0,1637343697.46875
928,-16.99,1637343697.484375
929,-19.83,1637343697.5
930,-22.43,1637343697.515625
931,-24.81,1637343697.53125
932,-27.14,1637343697.546875
933,-29.63,1637343697.5625
934,-32.33,1637343697.578125
935,-35.05,1637343697.59375
936,-37.3,1637343697.609375
937,-38.41,1637343697.625
938,-37.82,1637343697.640625
939,-35.25,1637343697.65625
940,-30.88,1637343697.671875
941,-25.36,1637343697.6875
942,-19.5,1637343697.703125
943,-14.15,1637343697.71875
944,-9.88,1637343697.734375
945,-6.9,1637343697.75
946,-5.13,1637343697.765625
947,-4.27,1637343697.78125
948,-3.88,1637343697.796875
949,-3.56,1637343697.8125
950,-2.93,1637343697.828125
951,-1.77,1637343697.84375
952,-0.02,1637343697.859375
953,2.21,1637343697.875
954,4.68,1637343697.890625
955,7.06,1637343697.90625
956,9.13,1637343697.921875
957,10.8,1637343697.9375
958,12.12,1637343697.953125
959,13.19,1637343697.96875
960,14.17,1637343697.984375
961,15.15,1637343698.0
962,16.21,1637343698.015625
963,17.38,1637343698.03125
964,18.66,1637343698.046875
965,19.99,1637343698.0625
966,21.23,1637343698.078125
967,22.18,1637343698.09375
968,22.64,1637343698.109375
969,22.45,1637343698.125
970,21.64,1637343698.140625
971,20.41,1637343698.15625
972,19.05,1637343698.171875
973,17.86,1637343698.1875
974,16.98,1637343698.203125
975,16.45,1637343698.21875
976,16.12,1637343698.234375
977,15.83,1637343698.25
978,15.43,1637343698.265625
979,14.85,1637343698.28125
980,14.15,1637343698.296875
981,13.43,1637343698.3125
982,12.84,1637343698.328125
983,12.4,1637343698.34375
984,12.09,1637343698.359375
985,11.82,1637343698.375
986,11.51,1637343698.390625
987,11.07,1637343698.40625
988,10.45,1637343698.421875
989,9.59,1637343698.4375
990,8.45,1637343698.453125
991,6.97,1637343698.46875
992,5.19,1637343698.484375
993,3.16,1637343698.5
994,0.96,1637343698.515625
995,-1.35,1637343698.53125
996,-3.7,1637343698.546875
997,-6.08,1637343698.5625
998,-8.4,1637343698.578125
999,-10.57,1637343698.59375
1000,-12.45,1637343698.609375
1001,-13.93,1637343698.625
1002,-15.02,1637343698.640625
1003,-15.84,1637343698.65625
1004,-16.63,1637343698.671875
1005,-17.7,1637343698.6875
1006,-19.27,1637343698.703125
1007,-21.45,1637343698.71875
1008,-24.04,1637343698.734375
1009,-26.55,1637343698.75
1010,-28.26,1637343698.765625
1011,-28.44,1637343698.78125
1012,-26.63,1637343698.796875
1013,-22.86,1637343698.8125
1014,-17.69,1637343698.828125
1015,-12.07,1637343698.84375
1016,-6.94,1637343698.859375
1017,-2.98,1637343698.875
1018,-0.37,1637343698.890625
1019,1.08,1637343698.90625
1020,1.84,1637343698.921875
1021,2.4,1637343698.9375
1022,3.12,1637343698.953125
1023,4.13,1637343698.96875
1024,5.46,1637343698.984375
1025,7.01,1637343699.0
1026,8.65,1637343699.015625
1027,10.25,1637343699.03125
1028,11.7,1637343699.046875
1029,12.9,1637343699.0625
1030,13.8,1637343699.078125
1031,14.47,1637343699.09375
1032,15.04,1637343699.109375
1033,15.71,1637343699.125
1034,16.69,1637343699.140625
1035,18.06,1637343699.15625
1036,19.72,1637343699.171875
1037,21.44,1637343699.1875
1038,22.89,1637343699.203125
1039,23.83,1637343699.21875
1040,24.18,1637343699.234375
1041,24.01,1637343699.25
1042,23.51,1637343699.265625
1043,22.85,1637343699.28125
1044,22.12,1637343699.296875
1045,21.4,1637343699.3125
1046,20.7,1637343699.328125
1047,20.04,1637343699.34375
1048,19.42,1637343699.359375
1049,18.72,1637343699.375
1050,17.85,1637343699.390625
1051,16.73,1637343699.40625
1052,15.38,1637343699.421875
1053,13.96,1637343699.4375
1054,12.64,1637343699.453125
1055,11.53,1637343699.46875
1056,10.6,1637343699.484375
1057,9.68,1637343699.5
1058,8.61,1637343699.515625
1059,7.3,1637343699.53125
1060,5.83,1637343699.546875
1061,4.35,1637343699.5625
1062,2.99,1637343699.578125
1063,1.8,1637343699.59375
1064,0.77,1637343699.609375
1065,-0.23,1637343699.625
1066,-1.32,1637343699.640625
1067,-2.61,1637343699.65625
1068,-4.17,1637343699.671875
1069,-6.01,1637343699.6875
1070,-8.06,1637343699.703125
1071,-10.19,1637343699.71875
1072,-12.21,1637343699.734375
1073,-13.99,1637343699.75
1074,-15.52,1637343699.765625
1075,-16.85,1637343699.78125
1076,-18.21,1637343699.796875
1077,-19.83,1637343699.8125
1078,-21.92,1637343699.828125
1079,-24.57,1637343699.84375
1080,-27.75,1637343699.859375
1081,-31.23,1637343699.875
1082,-34.59,1637343699.890625
1083,-37.3,1637343699.90625
1084,-38.75,1637343699.921875
1085,-38.47,1637343699.9375
1086,-36.23,1637343699.953125
1087,-32.19,1637343699.96875
1088,-26.81,1637343699.984375
1089,-20.76,1637343700.0
1090,-14.81,1637343700.015625
1091,-9.56,1637343700.03125
1092,-5.35,1637343700.046875
1093,-2.2,1637343700.0625
1094,0.14,1637343700.078125
1095,2.09,1637343700.09375
1096,4.02,1637343700.109375
1097,6.2,1637343700.125
1098,8.64,1637343700.140625
1099,11.2,1637343700.15625
1100,13.64,1637343700.171875
1101,15.77,1637343700.1875
1102,17.5,1637343700.203125
1103,18.84,1637343700.21875
1104,19.88,1637343700.234375
1105,20.63,1637343700.25
1106,21.1,1637343700.265625
1107,21.26,1637343700.28125
1108,21.16,1637343700.296875
1109,20.9,1637343700.3125
1110,20.59,1637343700.328125
1111,20.35,1637343700.34375
1112,20.18,1637343700.359375
1113,19.96,1637343700.375
1114,19.54,1637343700.390625
1115,18.78,1637343700.40625
1116,17.66,1637343700.421875
1117,16.3,1637343700.4375
1118,14.91,1637343700.453125
1119,13.66,1637343700.46875
1120,12.63,1637343700.484375
1121,11.78,1637343700.5
1122,11.01,1637343700.515625
1123,10.24,1637343700.53125
1124,9.46,1637343700.546875
1125,8.77,1637343700.5625
1126,8.26,1637343700.578125
1127,7.9,1637343700.59375
1128,7.58,1637343700.609375
1129,7.14,1637343700.625
1130,6.51,1637343700.640625
1131,5.72,1637343700.65625
1132,4.97,1637343700.671875
1133,4.42,1637343700.6875
1134,4.15,1637343700.703125
1135,4.04,1637343700.71875
1136,3.89,1637343700.734375
1137,3.52,1637343700.75
1138,2.82,1637343700.765625
1139,1.81,1637343700.78125
1140,0.59,1637343700.796875
1141,-0.75,1637343700.8125
1142,-2.13,1637343700.828125
1143,-3.52,1637343700.84375
1144,-4.94,1637343700.859375
1145,-6.4,1637343700.875
1146,-7.99,1637343700.890625
1147,-9.75,1637343700.90625
1148,-11.67,1637343700.921875
1149,-13.76,1637343700.9375
1150,-15.95,1637343700.953125
1151,-18.25,1637343700.96875
1152,-20.75,1637343700.984375
1153,-23.61,1637343701.0
1154,-26.92,1637343701.015625
1155,-30.59,1637343701.03125
1156,-34.28,1637343701.046875
1157,-37.41,1637343701.0625
1158,-39.38,1637343701.078125
1159,-39.75,1637343701.09375
1160,-38.39,1637343701.109375
1161,-35.46,1637343701.125
1162,-31.35,1637343701.140625
1163,-26.48,1637343701.15625
1164,-21.36,1637343701.171875
1165,-16.42,1637343701.1875
1166,-12.06,1637343701.203125
1167,-8.61,1637343701.21875
1168,-6.24,1637343701.234375
1169,-4.86,1637343701.25
1170,-4.16,1637343701.265625
1171,-3.71,1637343701.28125
1172,-3.08,1637343701.296875
1173,-2.08,1637343701.3125
1174,-0.75,1637343701.328125
1175,0.76,1637343701.34375
1176,2.31,1637343701.359375
1177,3.93,1637343701.375
1178,5.7,1637343701.390625
1179,7.72,1637343701.40625
1180,9.86,1637343701.421875
1181,11.9,1637343701.4375
1182,13.54,1637343701.453125
1183,14.69,1637343701.46875
1184,15.47,1637343701.484375
1185,16.14,1637343701.5
1186,16.98,1637343701.515625
1187,18.05,1637343701.53125
1188,19.12,1637343701.546875
1189,19.84,1637343701.5625
1190,19.76,1637343701.578125
1191,18.56,1637343701.59375
1192,16.09,1637343701.609375
1193,12.33,1637343701.625
1194,7.49,1637343701.640625
1195,2.0,1637343701.65625
1196,-3.43,1637343701.671875
1197,-7.91,1637343701.6875
1198,-10.52,1637343701.703125
1199,-10.61,1637343701.71875
1200,-8.01,1637343701.734375
1201,-3.14,1637343701.75
1202,3.04,1637343701.765625
1203,9.24,1637343701.78125
1204,14.11,1637343701.796875
1205,16.52,1637343701.8125
1206,15.8,1637343701.828125
1207,11.82,1637343701.84375
1208,4.99,1637343701.859375
1209,-3.93,1637343701.875
1210,-13.97,1637343701.890625
1211,-24.18,1637343701.90625
1212,-33.64,1637343701.921875
1213,-41.59,1637343701.9375
1214,-47.29,1637343701.953125
1215,-50.07,1637343701.96875
1216,-49.43,1637343701.984375
1217,-45.27,1637343702.0
1218,-38.02,1637343702.015625
1219,-28.82,1637343702.03125
1220,-19.33,1637343702.046875
1221,-11.45,1637343702.0625
1222,-6.76,1637343702.078125
1223,-6.05,1637343702.09375
1224,-8.91,1637343702.109375
1225,-13.76,1637343702.125
1226,-18.23,1637343702.140625
1227,-19.81,1637343702.15625
1228,-16.71,1637343702.171875
1229,-8.51,1637343702.1875
1230,3.52,1637343702.203125
1231,16.39,1637343702.21875
1232,25.63,1637343702.234375
1233,25.91,1637343702.25
1234,12.28,1637343702.265625
1235,-18.23,1637343702.28125
1236,-64.84,1637343702.296875
1237,-122.45,1637343702.3125
1238,-182.56,1637343702.328125
1239,-235.82,1637343702.34375
1240,-275.22,1637343702.359375
1241,-298.39,1637343702.375
1242,-307.79,1637343702.390625
1243,-308.89,1637343702.40625
1244,-307.41,1637343702.421875
1245,-306.84,1637343702.4375
1246,-307.92,1637343702.453125
1247,-309.46,1637343702.46875
1248,-310.01,1637343702.484375
1249,-308.84,1637343702.5
1250,-306.06,1637343702.515625
1251,-301.71,1637343702.53125
1252,-295.17,1637343702.546875
1253,-285.15,1637343702.5625
1254,-270.56,1637343702.578125
1255,-251.64,1637343702.59375
1256,-230.51,1637343702.609375
1257,-210.79,1637343702.625
1258,-196.52,1637343702.640625
1259,-190.58,1637343702.65625
1260,-193.65,1637343702.671875
1261,-204.0,1637343702.6875
1262,-218.35,1637343702.703125
1263,-233.24,1637343702.71875
1264,-246.3,1637343702.734375
1265,-256.78,1637343702.75
1266,-265.09,1637343702.765625
1267,-271.71,1637343702.78125
1268,-275.79,1637343702.796875
1269,-274.67,1637343702.8125
1270,-264.25,1637343702.828125
1271,-240.51,1637343702.84375
1272,-201.38,1637343702.859375
1273,-148.06,1637343702.875
1274,-85.12,1637343702.890625
1275,-19.17,1637343702.90625
1276,43.21,1637343702.921875
1277,97.53,1637343702.9375
1278,142.41,1637343702.953125
1279,179.21,1637343702.96875
1280,210.82,1637343702.984375
1281,240.33,1637343703.0
1282,270.16,1637343703.015625
1283,301.63,1637343703.03125
1284,334.28,1637343703.046875
1285,365.23,1637343703.0625
1286,388.83,1637343703.078125
1287,397.78,1637343703.09375
1288,385.98,1637343703.109375
1289,351.97,1637343703.125
1290,301.0,1637343703.140625
1291,244.21,1637343703.15625
1292,194.79,1637343703.171875
1293,162.8,1637343703.1875
1294,151.71,1637343703.203125
1295,158.24,1637343703.21875
1296,175.42,1637343703.234375
1297,197.05,1637343703.25
1298,220.81,1637343703.265625
1299,248.59,1637343703.28125
1300,283.97,1637343703.296875
1301,328.84,1637343703.3125
1302,380.72,1637343703.328125
1303,432.78,1637343703.34375
1304,476.07,1637343703.359375
1305,502.97,1637343703.375
1306,510.19,1637343703.390625
1307,500.02,1637343703.40625
1308,478.96,1637343703.421875
1309,454.92,1637343703.4375
1310,433.91,1637343703.453125
1311,418.21,1637343703.46875
1312,406.66,1637343703.484375
1313,396.67,1637343703.5
1314,386.52,1637343703.515625
1315,376.5,1637343703.53125
1316,368.41,1637343703.546875
1317,363.81,1637343703.5625
1318,362.53,1637343703.578125
1319,362.37,1637343703.59375
1320,360.03,1637343703.609375
1321,352.76,1637343703.625
1322,339.55,1637343703.640625
1323,321.3,1637343703.65625
1324,300.27,1637343703.671875
1325,278.79,1637343703.6875
1326,258.31,1637343703.703125
1327,238.96,1637343703.71875
1328,219.89,1637343703.734375
1329,199.91,1637343703.75
1330,178.19,1637343703.765625
1331,154.61,1637343703.78125
1332,129.72,1637343703.796875
1333,104.43,1637343703.8125
1334,79.64,1637343703.828125
1335,56.1,1637343703.84375
1336,34.41,1637343703.859375
1337,15.0,1637343703.875
1338,-1.84,1637343703.890625
1339,-16.13,1637343703.90625
1340,-28.38,1637343703.921875
1341,-39.54,1637343703.9375
1342,-50.84,1637343703.953125
1343,-63.36,1637343703.96875
1344,-77.75,1637343703.984375
1345,-94.07,1637343704.0
1346,-111.96,1637343704.015625
1347,-130.41,1637343704.03125
1348,-147.95,1637343704.046875
1349,-162.77,1637343704.0625
1350,-172.94,1637343704.078125
1351,-177.1,1637343704.09375
1352,-175.22,1637343704.109375
1353,-168.98,1637343704.125
1354,-161.16,1637343704.140625
1355,-154.41,1637343704.15625
1356,-149.67,1637343704.171875
1357,-145.62,1637343704.1875
1358,-139.6,1637343704.203125
1359,-129.53,1637343704.21875
1360,-116.1,1637343704.234375
1361,-103.42,1637343704.25
1362,-97.94,1637343704.265625
1363,-105.94,1637343704.28125
1364,-130.53,1637343704.296875
1365,-170.15,1637343704.3125
1366,-218.84,1637343704.328125
1367,-268.39,1637343704.34375
1368,-310.82,1637343704.359375
1369,-340.64,1637343704.375
1370,-355.56,1637343704.390625
1371,-356.14,1637343704.40625
1372,-344.75,1637343704.421875
1373,-324.47,1637343704.4375
1374,-298.44,1637343704.453125
1375,-269.71,1637343704.46875
1376,-241.26,1637343704.484375
1377,-215.91,1637343704.5
1378,-196.32,1637343704.515625
1379,-184.07,1637343704.53125
1380,-179.02,1637343704.546875
1381,-179.0,1637343704.5625
1382,-179.91,1637343704.578125
1383,-176.92,1637343704.59375
1384,-165.75,1637343704.609375
1385,-144.07,1637343704.625
1386,-112.38,1637343704.640625
1387,-74.26,1637343704.65625
1388,-35.51,1637343704.671875
1389,-2.77,1637343704.6875
1390,18.41,1637343704.703125
1391,25.04,1637343704.71875
1392,17.48,1637343704.734375
1393,-1.07,1637343704.75
1394,-25.78,1637343704.765625
1395,-51.95,1637343704.78125
1396,-76.31,1637343704.796875
1397,-97.27,1637343704.8125
1398,-114.39,1637343704.828125
1399,-127.27,1637343704.84375
1400,-134.84,1637343704.859375
1401,-135.54,1637343704.875
1402,-128.07,1637343704.890625
1403,-112.48,1637343704.90625
1404,-90.67,1637343704.921875
1405,-66.14,1637343704.9375
1406,-42.79,1637343704.953125
1407,-23.79,1637343704.96875
1408,-10.67,1637343704.984375
1409,-3.23,1637343705.0
1410,-0.04,1637343705.015625
1411,0.72,1637343705.03125
1412,0.54,1637343705.046875
1413,0.34,1637343705.0625
1414,0.57,1637343705.078125
1415,1.55,1637343705.09375
1416,3.78,1637343705.109375
1417,7.98,1637343705.125
1418,14.89,1637343705.140625
1419,24.92,1637343705.15625
1420,37.79,1637343705.171875
1421,52.39,1637343705.1875
1422,66.87,1637343705.203125
1423,78.94,1637343705.21875
1424,86.5,1637343705.234375
1425,88.11,1637343705.25
1426,83.63,1637343705.265625
1427,74.24,1637343705.28125
1428,62.24,1637343705.296875
1429,50.4,1637343705.3125
1430,41.1,1637343705.328125
1431,35.79,1637343705.34375
1432,34.89,1637343705.359375
1433,38.02,1637343705.375
1434,44.53,1637343705.390625
1435,53.72,1637343705.40625
1436,64.91,1637343705.421875
1437,77.17,1637343705.4375
1438,89.19,1637343705.453125
1439,99.32,1637343705.46875
1440,105.92,1637343705.484375
1441,107.97,1637343705.5
1442,105.35,1637343705.515625
1443,98.86,1637343705.53125
1444,89.94,1637343705.546875
1445,80.19,1637343705.5625
1446,71.01,1637343705.578125
1447,63.37,1637343705.59375
1448,57.83,1637343705.609375
1449,54.54,1637343705.625
1450,53.28,1637343705.640625
1451,53.45,1637343705.65625
1452,54.23,1637343705.671875
1453,54.79,1637343705.6875
1454,54.5,1637343705.703125
1455,53.19,1637343705.71875
1456,51.11,1637343705.734375
1457,48.76,1637343705.75
1458,46.66,1637343705.765625
1459,45.16,1637343705.78125
1460,44.25,1637343705.796875
1461,43.68,1637343705.8125
1462,42.97,1637343705.828125
1463,41.51,1637343705.84375
1464,38.7,1637343705.859375
1465,34.07,1637343705.875
1466,27.37,1637343705.890625
1467,18.73,1637343705.90625
1468,8.78,1637343705.921875
1469,-1.19,1637343705.9375
1470,-9.32,1637343705.953125
1471,-13.63,1637343705.96875
1472,-12.78,1637343705.984375
1473,-6.77,1637343706.0
1474,2.69,1637343706.015625
1475,12.55,1637343706.03125
1476,19.42,1637343706.046875
1477,20.82,1637343706.0625
1478,15.99,1637343706.078125
1479,6.05,1637343706.09375
1480,-6.74,1637343706.109375
1481,-19.87,1637343706.125
1482,-31.28,1637343706.140625
1483,-39.59,1637343706.15625
1484,-43.84,1637343706.171875
1485,-43.3,1637343706.1875
1486,-37.59,1637343706.203125
1487,-27.02,1637343706.21875
1488,-12.93,1637343706.234375
1489,2.54,1637343706.25
1490,17.07,1637343706.265625
1491,29.0,1637343706.28125
1492,37.76,1637343706.296875
1493,43.87,1637343706.3125
1494,48.43,1637343706.328125
1495,52.44,1637343706.34375
1496,56.34,1637343706.359375
1497,59.99,1637343706.375
1498,62.92,1637343706.390625
1499,64.73,1637343706.40625
1500,65.41,1637343706.421875
1501,65.35,1637343706.4375
1502,65.15,1637343706.453125
1503,65.33,1637343706.46875
1504,65.87,1637343706.484375
1505,66.13,1637343706.5
1506,64.85,1637343706.515625
1507,60.77,1637343706.53125
1508,53.08,1637343706.546875
1509,42.12,1637343706.5625
1510,29.37,1637343706.578125
1511,17.0,1637343706.59375
1512,7.13,1637343706.609375
1513,1.0,1637343706.625
1514,-1.4,1637343706.640625
1515,-1.12,1637343706.65625
1516,0.39,1637343706.671875
1517,1.9,1637343706.6875
1518,2.9,1637343706.703125
1519,3.65,1637343706.71875
1520,4.94,1637343706.734375
1521,7.71,1637343706.75
1522,12.56,1637343706.765625
1523,19.58,1637343706.78125
1524,28.06,1637343706.796875
1525,36.44,1637343706.8125
1526,42.41,1637343706.828125
1527,43.36,1637343706.84375
1528,37.21,1637343706.859375
1529,23.26,1637343706.875
1530,2.75,1637343706.890625
1531,-21.3,1637343706.90625
1532,-45.04,1637343706.921875
1533,-64.99,1637343706.9375
1534,-79.14,1637343706.953125
1535,-87.24,1637343706.96875
1536,-90.4,1637343706.984375
1537,-90.2,1637343707.0
1538,-87.99,1637343707.015625
1539,-84.47,1637343707.03125
1540,-79.97,1637343707.046875
1541,-74.82,1637343707.0625
1542,-69.61,1637343707.078125
1543,-65.25,1637343707.09375
1544,-62.78,1637343707.109375
1545,-63.17,1637343707.125
1546,-66.95,1637343707.140625
1547,-73.84,1637343707.15625
1548,-82.34,1637343707.171875
1549,-89.73,1637343707.1875
1550,-92.72,1637343707.203125
1551,-88.54,1637343707.21875
1552,-76.14,1637343707.234375
1553,-56.83,1637343707.25
1554,-33.98,1637343707.265625
1555,-11.68,1637343707.28125
1556,6.64,1637343707.296875
1557,19.35,1637343707.3125
1558,26.64,1637343707.328125
1559,29.97,1637343707.34375
1560,31.04,1637343707.359375
1561,31.26,1637343707.375
1562,31.58,1637343707.390625
1563,32.68,1637343707.40625
1564,35.15,1637343707.421875
1565,39.34,1637343707.4375
1566,45.03,1637343707.453125
1567,51.33,1637343707.46875
1568,56.77,1637343707.484375
1569,59.93,1637343707.5
1570,59.89,1637343707.515625
1571,56.66,1637343707.53125
1572,51.18,1637343707.546875
1573,44.96,1637343707.5625
1574,39.59,1637343707.578125
1575,36.27,1637343707.59375
1576,35.48,1637343707.609375
1577,36.96,1637343707.625
1578,39.85,1637343707.640625
1579,42.95,1637343707.65625
1580,45.09,1637343707.671875
1581,45.43,1637343707.6875
1582,43.68,1637343707.703125
1583,40.13,1637343707.71875
1584,35.46,1637343707.734375
1585,30.52,1637343707.75
1586,25.93,1637343707.765625
1587,21.98,1637343707.78125
1588,18.63,1637343707.796875
1589,15.72,1637343707.8125
1590,13.1,1637343707.828125
1591,10.74,1637343707.84375
1592,8.72,1637343707.859375
1593,7.14,1637343707.875
1594,6.03,1637343707.890625
1595,5.29,1637343707.90625
1596,4.73,1637343707.921875
1597,4.09,1637343707.9375
1598,3.06,1637343707.953125
1599,1.42,1637343707.96875
1600,-0.98,1637343707.984375
1601,-4.09,1637343708.0
1602,-7.64,1637343708.015625
1603,-11.16,1637343708.03125
1604,-14.17,1637343708.046875
1605,-16.33,1637343708.0625
1606,-17.59,1637343708.078125
1607,-18.27,1637343708.09375
1608,-18.91,1637343708.109375
1609,-20.09,1637343708.125
1610,-22.05,1637343708.140625
1611,-24.66,1637343708.15625
1612,-27.38,1637343708.171875
1613,-29.53,1637343708.1875
1614,-30.63,1637343708.203125
1615,-30.62,1637343708.21875
1616,-29.88,1637343708.234375
1617,-29.2,1637343708.25
1618,-29.44,1637343708.265625
1619,-31.37,1637343708.28125
1620,-35.45,1637343708.296875
1621,-41.5,1637343708.3125
1622,-48.59,1637343708.328125
1623,-54.92,1637343708.34375
1624,-58.13,1637343708.359375
1625,-55.99,1637343708.375
1626,-47.22,1637343708.390625
1627,-32.32,1637343708.40625
1628,-13.64,1637343708.421875
1629,5.29,1637343708.4375
1630,20.87,1637343708.453125
1631,30.7,1637343708.46875
1632,34.18,1637343708.484375
1633,32.44,1637343708.5
1634,27.66,1637343708.515625
1635,22.06,1637343708.53125
1636,17.32,1637343708.546875
1637,14.31,1637343708.5625
1638,13.24,1637343708.578125
1639,13.95,1637343708.59375
1640,16.08,1637343708.609375
1641,18.99,1637343708.625
1642,21.9,1637343708.640625
1643,23.91,1637343708.65625
1644,24.33,1637343708.671875
1645,22.95,1637343708.6875
1646,20.1,1637343708.703125
1647,16.64,1637343708.71875
1648,13.55,1637343708.734375
1649,11.64,1637343708.75
1650,11.26,1637343708.765625
1651,12.26,1637343708.78125
1652,14.13,1637343708.796875
1653,16.13,1637343708.8125
1654,17.56,1637343708.828125
1655,17.91,1637343708.84375
1656,16.98,1637343708.859375
1657,14.91,1637343708.875
1658,12.19,1637343708.890625
1659,9.45,1637343708.90625
1660,7.24,1637343708.921875
1661,5.81,1637343708.9375
1662,5.0,1637343708.953125
1663,4.36,1637343708.96875
1664,3.36,1637343708.984375
1665,1.66,1637343709.0
1666,-0.76,1637343709.015625
1667,-3.54,1637343709.03125
1668,-6.17,1637343709.046875
1669,-8.19,1637343709.0625
1670,-9.39,1637343709.078125
1671,-9.98,1637343709.09375
1672,-10.47,1637343709.109375
1673,-11.42,1637343709.125
1674,-13.24,1637343709.140625
1675,-16.0,1637343709.15625
1676,-19.39,1637343709.171875
1677,-22.83,1637343709.1875
1678,-25.74,1637343709.203125
1679,-27.7,1637343709.21875
1680,-28.66,1637343709.234375
1681,-28.97,1637343709.25
1682,-29.27,1637343709.265625
1683,-30.35,1637343709.28125
1684,-32.92,1637343709.296875
1685,-37.29,1637343709.3125
1686,-43.1,1637343709.328125
1687,-49.12,1637343709.34375
1688,-53.36,1637343709.359375
1689,-53.65,1637343709.375
1690,-48.37,1637343709.390625
1691,-37.29,1637343709.40625
1692,-21.78,1637343709.421875
1693,-4.63,1637343709.4375
1694,10.92,1637343709.453125
1695,22.2,1637343709.46875
1696,27.94,1637343709.484375
1697,28.48,1637343709.5
1698,25.36,1637343709.515625
1699,20.62,1637343709.53125
1700,16.13,1637343709.546875
1701,13.18,1637343709.5625
1702,12.36,1637343709.578125
1703,13.69,1637343709.59375
1704,16.64,1637343709.609375
1705,20.33,1637343709.625
1706,23.7,1637343709.640625
1707,25.79,1637343709.65625
1708,25.94,1637343709.671875
1709,24.09,1637343709.6875
1710,20.75,1637343709.703125
1711,16.78,1637343709.71875
1712,13.14,1637343709.734375
1713,10.54,1637343709.75
1714,9.24,1637343709.765625
1715,9.11,1637343709.78125
1716,9.74,1637343709.796875
1717,10.66,1637343709.8125
1718,11.41,1637343709.828125
1719,11.69,1637343709.84375
1720,11.33,1637343709.859375
1721,10.25,1637343709.875
1722,8.53,1637343709.890625
1723,6.32,1637343709.90625
1724,3.96,1637343709.921875
1725,1.78,1637343709.9375
1726,0.12,1637343709.953125
1727,-0.89,1637343709.96875
1728,-1.27,1637343709.984375
1729,-1.26,1637343710.0
1730,-1.1,1637343710.015625
1731,-0.98,1637343710.03125
1732,-0.9,1637343710.046875
1733,-0.7,1637343710.0625
1734,-0.19,1637343710.078125
1735,0.75,1637343710.09375
1736,2.06,1637343710.109375
1737,3.51,1637343710.125
1738,4.73,1637343710.140625
1739,5.37,1637343710.15625
1740,5.14,1637343710.171875
1741,3.85,1637343710.1875
1742,1.46,1637343710.203125
1743,-2.02,1637343710.21875
1744,-6.53,1637343710.234375
1745,-11.96,1637343710.25
1746,-18.1,1637343710.265625
1747,-24.62,1637343710.28125
1748,-31.0,1637343710.296875
1749,-36.69,1637343710.3125
1750,-41.1,1637343710.328125
1751,-43.86,1637343710.34375
1752,-44.83,1637343710.359375
1753,-44.14,1637343710.375
1754,-42.13,1637343710.390625
1755,-39.32,1637343710.40625
1756,-36.36,1637343710.421875
1757,-33.95,1637343710.4375
1758,-32.94,1637343710.453125
1759,-34.03,1637343710.46875
1760,-37.48,1637343710.484375
1761,-42.75,1637343710.5
1762,-48.21,1637343710.515625
1763,-51.47,1637343710.53125
1764,-49.97,1637343710.546875
1765,-42.1,1637343710.5625
1766,-27.94,1637343710.578125
1767,-9.57,1637343710.59375
1768,9.58,1637343710.609375
1769,25.85,1637343710.625
1770,36.63,1637343710.640625
1771,41.1,1637343710.65625
1772,40.15,1637343710.671875
1773,35.7,1637343710.6875
1774,29.83,1637343710.703125
1775,24.19,1637343710.71875
1776,19.77,1637343710.734375
1777,17.09,1637343710.75
1778,16.35,1637343710.765625
1779,17.5,1637343710.78125
1780,20.13,1637343710.796875
1781,23.41,1637343710.8125
1782,26.25,1637343710.828125
1783,27.64,1637343710.84375
1784,27.07,1637343710.859375
1785,24.65,1637343710.875
1786,21.14,1637343710.890625
1787,17.54,1637343710.90625
1788,14.72,1637343710.921875
1789,13.25,1637343710.9375
1790,13.16,1637343710.953125
1791,14.13,1637343710.96875
1792,15.56,1637343710.984375
1793,16.79,1637343711.0
1794,17.19,1637343711.015625
1795,16.47,1637343711.03125
1796,14.7,1637343711.046875
1797,12.29,1637343711.0625
1798,9.88,1637343711.078125
1799,8.07,1637343711.09375
1800,7.1,1637343711.109375
1801,6.87,1637343711.125
1802,6.92,1637343711.140625
1803,6.73,1637343711.15625
1804,5.95,1637343711.171875
1805,4.52,1637343711.1875
1806,2.66,1637343711.203125
1807,0.73,1637343711.21875
1808,-0.99,1637343711.234375
1809,-2.31,1637343711.25
1810,-3.2,1637343711.265625
1811,-3.8,1637343711.28125
1812,-4.32,1637343711.296875
1813,-5.05,1637343711.3125
1814,-6.23,1637343711.328125
1815,-7.96,1637343711.34375
1816,-10.11,1637343711.359375
1817,-12.29,1637343711.375
1818,-14.07,1637343711.390625
1819,-15.13,1637343711.40625
1820,-15.51,1637343711.421875
1821,-15.61,1637343711.4375
1822,-16.01,1637343711.453125
1823,-17.17,1637343711.46875
1824,-19.24,1637343711.484375
1825,-21.92,1637343711.5
1826,-24.61,1637343711.515625
1827,-26.63,1637343711.53125
1828,-27.57,1637343711.546875
1829,-27.42,1637343711.5625
1830,-26.65,1637343711.578125
1831,-26.02,1637343711.59375
1832,-26.39,1637343711.609375
1833,-28.43,1637343711.625
1834,-32.41,1637343711.640625
1835,-37.89,1637343711.65625
1836,-43.66,1637343711.671875
1837,-47.78,1637343711.6875
1838,-48.0,1637343711.703125
1839,-42.53,1637343711.71875
1840,-30.9,1637343711.734375
1841,-14.41,1637343711.75
1842,4.04,1637343711.765625
1843,20.83,1637343711.78125
1844,32.87,1637343711.796875
1845,38.62,1637343711.8125
1846,38.44,1637343711.828125
1847,34.09,1637343711.84375
1848,27.9,1637343711.859375
1849,21.86,1637343711.875
1850,17.23,1637343711.890625
1851,14.61,1637343711.90625
1852,14.08,1637343711.921875
1853,15.45,1637343711.9375
1854,18.23,1637343711.953125
1855,21.6,1637343711.96875
1856,24.56,1637343711.984375
1857,26.17,1637343712.0
1858,25.87,1637343712.015625
1859,23.76,1637343712.03125
1860,20.49,1637343712.046875
1861,17.08,1637343712.0625
1862,14.4,1637343712.078125
1863,12.98,1637343712.09375
1864,12.88,1637343712.109375
1865,13.7,1637343712.125
1866,14.81,1637343712.140625
1867,15.53,1637343712.15625
1868,15.36,1637343712.171875
1869,14.12,1637343712.1875
1870,11.97,1637343712.203125
1871,9.32,1637343712.21875
1872,6.67,1637343712.234375
1873,4.34,1637343712.25
1874,2.55,1637343712.265625
1875,1.23,1637343712.28125
1876,0.21,1637343712.296875
1877,-0.73,1637343712.3125
1878,-1.79,1637343712.328125
1879,-3.03,1637343712.34375
1880,-4.41,1637343712.359375
1881,-5.79,1637343712.375
1882,-7.01,1637343712.390625
1883,-7.91,1637343712.40625
1884,-8.39,1637343712.421875
1885,-8.51,1637343712.4375
1886,-8.43,1637343712.453125
1887,-8.38,1637343712.46875
1888,-8.62,1637343712.484375
1889,-9.23,1637343712.5
1890,-10.17,1637343712.515625
1891,-11.19,1637343712.53125
1892,-12.0,1637343712.546875
1893,-12.29,1637343712.5625
1894,-11.99,1637343712.578125
1895,-11.25,1637343712.59375
1896,-10.52,1637343712.609375
1897,-10.33,1637343712.625
1898,-11.04,1637343712.640625
1899,-12.66,1637343712.65625
1900,-14.81,1637343712.671875
1901,-16.88,1637343712.6875
1902,-18.32,1637343712.703125
1903,-18.89,1637343712.71875
1904,-18.78,1637343712.734375
1905,-18.57,1637343712.75
1906,-19.03,1637343712.765625
1907,-20.86,1637343712.78125
1908,-24.5,1637343712.796875
1909,-29.88,1637343712.8125
1910,-36.36,1637343712.828125
1911,-42.6,1637343712.84375
1912,-46.78,1637343712.859375
1913,-46.93,1637343712.875
1914,-41.64,1637343712.890625
1915,-30.72,1637343712.90625
1916,-15.48,1637343712.921875
1917,1.43,1637343712.9375
1918,16.88,1637343712.953125
1919,28.14,1637343712.96875
1920,33.81,1637343712.984375
1921,34.02,1637343713.0
1922,30.18,1637343713.015625
1923,24.3,1637343713.03125
1924,18.32,1637343713.046875
1925,13.59,1637343713.0625
1926,10.83,1637343713.078125
1927,10.12,1637343713.09375
1928,11.15,1637343713.109375
1929,13.32,1637343713.125
1930,15.91,1637343713.140625
1931,18.16,1637343713.15625
1932,19.45,1637343713.171875
1933,19.47,1637343713.1875
1934,18.22,1637343713.203125
1935,16.01,1637343713.21875
1936,13.36,1637343713.234375
1937,10.79,1637343713.25
1938,8.75,1637343713.265625
1939,7.48,1637343713.28125
1940,6.92,1637343713.296875
1941,6.82,1637343713.3125
1942,6.76,1637343713.328125
1943,6.2,1637343713.34375
1944,4.82,1637343713.359375
1945,2.53,1637343713.375
1946,-0.45,1637343713.390625
1947,-3.61,1637343713.40625
1948,-6.4,1637343713.421875
1949,-8.34,1637343713.4375
1950,-9.23,1637343713.453125
1951,-9.16,1637343713.46875
1952,-8.39,1637343713.484375
1953,-7.27,1637343713.5
1954,-6.06,1637343713.515625
1955,-4.95,1637343713.53125
1956,-4.0,1637343713.546875
1957,-3.28,1637343713.5625
1958,-2.78,1637343713.578125
1959,-2.47,1637343713.59375
1960,-2.28,1637343713.609375
1961,-2.09,1637343713.625
1962,-1.87,1637343713.640625
1963,-1.67,1637343713.65625
1964,-1.74,1637343713.671875
1965,-2.42,1637343713.6875
1966,-4.06,1637343713.703125
1967,-6.79,1637343713.71875
1968,-10.46,1637343713.734375
1969,-14.6,1637343713.75
1970,-18.56,1637343713.765625
1971,-21.73,1637343713.78125
1972,-23.86,1637343713.796875
1973,-25.11,1637343713.8125
1974,-26.07,1637343713.828125
1975,-27.63,1637343713.84375
1976,-30.64,1637343713.859375
1977,-35.58,1637343713.875
1978,-42.22,1637343713.890625
1979,-49.48,1637343713.90625
1980,-55.47,1637343713.921875
1981,-57.91,1637343713.9375
1982,-54.84,1637343713.953125
1983,-45.4,1637343713.96875
1984,-30.38,1637343713.984375
1985,-12.21,1637343714.0
1986,5.7,1637343714.015625
1987,20.05,1637343714.03125
1988,28.71,1637343714.046875
1989,31.31,1637343714.0625
1990,29.1,1637343714.078125
1991,24.26,1637343714.09375
1992,19.04,1637343714.109375
1993,15.09,1637343714.125
1994,13.25,1637343714.140625
1995,13.57,1637343714.15625
1996,15.58,1637343714.171875
1997,18.58,1637343714.1875
1998,21.72,1637343714.203125
1999,24.18,1637343714.21875
2000,25.32,1637343714.234375
2001,24.84,1637343714.25
2002,22.94,1637343714.265625
2003,20.17,1637343714.28125
2004,17.32,1637343714.296875
2005,15.08,1637343714.3125
2006,13.82,1637343714.328125
2007,13.59,1637343714.34375
2008,14.12,1637343714.359375
2009,15.02,1637343714.375
2010,15.86,1637343714.390625
2011,16.32,1637343714.40625
2012,16.18,1637343714.421875
2013,15.4,1637343714.4375
2014,14.14,1637343714.453125
2015,12.61,1637343714.46875
2016,10.99,1637343714.484375
2017,9.44,1637343714.5
2018,7.99,1637343714.515625
2019,6.58,1637343714.53125
2020,5.17,1637343714.546875
2021,3.74,1637343714.5625
2022,2.27,1637343714.578125
2023,0.85,1637343714.59375
2024,-0.47,1637343714.609375
2025,-1.6,1637343714.625
2026,-2.41,1637343714.640625
2027,-2.83,1637343714.65625
2028,-2.81,1637343714.671875
2029,-2.53,1637343714.6875
2030,-2.29,1637343714.703125
2031,-2.5,1637343714.71875
2032,-3.42,1637343714.734375
2033,-5.08,1637343714.75
2034,-7.17,1637343714.765625
2035,-9.22,1637343714.78125
2036,-10.77,1637343714.796875
2037,-11.61,1637343714.8125
2038,-11.88,1637343714.828125
2039,-12.0,1637343714.84375
2040,-12.37,1637343714.859375
2041,-13.26,1637343714.875
2042,-14.56,1637343714.890625
2043,-15.9,1637343714.90625
2044,-16.82,1637343714.921875
2045,-17.05,1637343714.9375
2046,-16.68,1637343714.953125
2047,-16.15,1637343714.96875
2048,-16.08,1637343714.984375
2049,-17.05,1637343715.0
2050,-19.46,1637343715.015625
2051,-23.46,1637343715.03125
2052,-28.88,1637343715.046875
2053,-35.13,1637343715.0625
2054,-41.02,1637343715.078125
2055,-44.85,1637343715.09375
2056,-44.74,1637343715.109375
2057,-39.35,1637343715.125
2058,-28.56,1637343715.140625
2059,-13.86,1637343715.15625
2060,1.93,1637343715.171875
2061,15.62,1637343715.1875
2062,24.72,1637343715.203125
2063,28.27,1637343715.21875
2064,26.89,1637343715.234375
2065,22.28,1637343715.25
2066,16.43,1637343715.265625
2067,11.03,1637343715.28125
2068,7.18,1637343715.296875
2069,5.5,1637343715.3125
2070,6.22,1637343715.328125
2071,9.14,1637343715.34375
2072,13.56,1637343715.359375
2073,18.37,1637343715.375
2074,22.26,1637343715.390625
2075,24.15,1637343715.40625
2076,23.66,1637343715.421875
2077,21.12,1637343715.4375
2078,17.47,1637343715.453125
2079,13.84,1637343715.46875
2080,11.18,1637343715.484375
2081,9.92,1637343715.5
2082,10.04,1637343715.515625
2083,11.16,1637343715.53125
2084,12.72,1637343715.546875
2085,14.14,1637343715.5625
2086,14.97,1637343715.578125
2087,14.93,1637343715.59375
2088,13.96,1637343715.609375
2089,12.23,1637343715.625
2090,10.11,1637343715.640625
2091,8.06,1637343715.65625
2092,6.49,1637343715.671875
2093,5.65,1637343715.6875
2094,5.58,1637343715.703125
2095,6.02,1637343715.71875
2096,6.58,1637343715.734375
2097,6.84,1637343715.75
2098,6.53,1637343715.765625
2099,5.63,1637343715.78125
2100,4.39,1637343715.796875
2101,3.22,1637343715.8125
2102,2.47,1637343715.828125
2103,2.32,1637343715.84375
2104,2.64,1637343715.859375
2105,3.07,1637343715.875
2106,3.18,1637343715.890625
2107,2.63,1637343715.90625
2108,1.35,1637343715.921875
2109,-0.47,1637343715.9375
2110,-2.42,1637343715.953125
2111,-4.12,1637343715.96875
2112,-5.27,1637343715.984375
2113,-5.88,1637343716.0
2114,-6.16,1637343716.015625
2115,-6.52,1637343716.03125
2116,-7.3,1637343716.046875
2117,-8.74,1637343716.0625
2118,-10.82,1637343716.078125
2119,-13.31,1637343716.09375
2120,-15.78,1637343716.109375
2121,-17.84,1637343716.125
2122,-19.26,1637343716.140625
2123,-20.05,1637343716.15625
2124,-20.58,1637343716.171875
2125,-21.45,1637343716.1875
2126,-23.37,1637343716.203125
2127,-26.9,1637343716.21875
2128,-32.11,1637343716.234375
2129,-38.39,1637343716.25
2130,-44.31,1637343716.265625
2131,-47.9,1637343716.28125
2132,-47.18,1637343716.296875
2133,-40.94,1637343716.3125
2134,-29.39,1637343716.328125
2135,-14.35,1637343716.34375
2136,1.25,1637343716.359375
2137,14.19,1637343716.375
2138,22.14,1637343716.390625
2139,24.41,1637343716.40625
2140,21.96,1637343716.421875
2141,16.95,1637343716.4375
2142,11.7,1637343716.453125
2143,8.02,1637343716.46875
2144,6.72,1637343716.484375
2145,7.72,1637343716.5
2146,10.41,1637343716.515625
2147,13.98,1637343716.53125
2148,17.68,1637343716.546875
2149,20.82,1637343716.5625
2150,22.87,1637343716.578125
2151,23.42,1637343716.59375
2152,22.45,1637343716.609375
2153,20.31,1637343716.625
2154,17.66,1637343716.640625
2155,15.3,1637343716.65625
2156,13.81,1637343716.671875
2157,13.41,1637343716.6875
2158,13.87,1637343716.703125
2159,14.67,1637343716.71875
2160,15.23,1637343716.734375
2161,15.15,1637343716.75
2162,14.3,1637343716.765625
2163,12.81,1637343716.78125
2164,11.08,1637343716.796875
2165,9.47,1637343716.8125
2166,8.32,1637343716.828125
2167,7.77,1637343716.84375
2168,7.77,1637343716.859375
2169,8.07,1637343716.875
2170,8.27,1637343716.890625
2171,8.04,1637343716.90625
2172,7.19,1637343716.921875
2173,5.78,1637343716.9375
2174,4.13,1637343716.953125
2175,2.63,1637343716.96875
2176,1.59,1637343716.984375
2177,1.02,1637343717.0
2178,0.68,1637343717.015625
2179,0.11,1637343717.03125
2180,-1.08,1637343717.046875
2181,-3.08,1637343717.0625
2182,-5.67,1637343717.078125
2183,-8.4,1637343717.09375
2184,-10.67,1637343717.109375
2185,-12.05,1637343717.125
2186,-12.41,1637343717.140625
2187,-12.03,1637343717.15625
2188,-11.42,1637343717.171875
2189,-11.13,1637343717.1875
2190,-11.5,1637343717.203125
2191,-12.53,1637343717.21875
2192,-13.91,1637343717.234375
2193,-15.18,1637343717.25
2194,-15.99,1637343717.265625
2195,-16.23,1637343717.28125
2196,-16.15,1637343717.296875
2197,-16.29,1637343717.3125
2198,-17.35,1637343717.328125
2199,-19.97,1637343717.34375
2200,-24.36,1637343717.359375
2201,-30.14,1637343717.375
2202,-36.18,1637343717.390625
2203,-40.72,1637343717.40625
2204,-41.76,1637343717.421875
2205,-37.82,1637343717.4375
2206,-28.56,1637343717.453125
2207,-15.14,1637343717.46875
2208,-0.03,1637343717.484375
2209,13.75,1637343717.5
2210,23.59,1637343717.515625
2211,28.13,1637343717.53125
2212,27.56,1637343717.546875
2213,23.31,1637343717.5625
2214,17.5,1637343717.578125
2215,12.06,1637343717.59375
2216,8.33,1637343717.609375
2217,6.78,1637343717.625
2218,7.23,1637343717.640625
2219,9.1,1637343717.65625
2220,11.63,1637343717.671875
2221,14.12,1637343717.6875
2222,15.99,1637343717.703125
2223,16.89,1637343717.71875
2224,16.66,1637343717.734375
2225,15.47,1637343717.75
2226,13.62,1637343717.765625
2227,11.64,1637343717.78125
2228,10.02,1637343717.796875
2229,9.12,1637343717.8125
2230,9.03,1637343717.828125
2231,9.61,1637343717.84375
2232,10.54,1637343717.859375
2233,11.41,1637343717.875
2234,11.91,1637343717.890625
2235,11.87,1637343717.90625
2236,11.37,1637343717.921875
2237,10.63,1637343717.9375
2238,9.95,1637343717.953125
2239,9.54,1637343717.96875
2240,9.51,1637343717.984375
2241,9.74,1637343718.0
2242,9.96,1637343718.015625
2243,9.9,1637343718.03125
2244,9.41,1637343718.046875
2245,8.5,1637343718.0625
2246,7.34,1637343718.078125
2247,6.2,1637343718.09375
2248,5.29,1637343718.109375
2249,4.73,1637343718.125
2250,4.46,1637343718.140625
2251,4.3,1637343718.15625
2252,4.01,1637343718.171875
2253,3.29,1637343718.1875
2254,1.95,1637343718.203125
2255,-0.13,1637343718.21875
2256,-2.85,1637343718.234375
2257,-5.89,1637343718.25
2258,-8.78,1637343718.265625
2259,-11.06,1637343718.28125
2260,-12.49,1637343718.296875
2261,-13.09,1637343718.3125
2262,-13.24,1637343718.328125
2263,-13.48,1637343718.34375
2264,-14.27,1637343718.359375
2265,-15.75,1637343718.375
2266,-17.7,1637343718.390625
2267,-19.64,1637343718.40625
2268,-21.09,1637343718.421875
2269,-21.77,1637343718.4375
2270,-21.78,1637343718.453125
2271,-21.56,1637343718.46875
2272,-21.75,1637343718.484375
2273,-22.96,1637343718.5
2274,-25.67,1637343718.515625
2275,-29.98,1637343718.53125
2276,-35.5,1637343718.546875
2277,-41.22,1637343718.5625
2278,-45.55,1637343718.578125
2279,-46.64,1637343718.59375
2280,-42.97,1637343718.609375
2281,-34.07,1637343718.625
2282,-20.9,1637343718.640625
2283,-5.77,1637343718.65625
2284,8.34,1637343718.671875
2285,18.79,1637343718.6875
2286,24.11,1637343718.703125
2287,24.34,1637343718.71875
2288,20.84,1637343718.734375
2289,15.54,1637343718.75
2290,10.34,1637343718.765625
2291,6.57,1637343718.78125
2292,4.93,1637343718.796875
2293,5.54,1637343718.8125
2294,8.14,1637343718.828125
2295,12.1,1637343718.84375
2296,16.59,1637343718.859375
2297,20.65,1637343718.875
2298,23.48,1637343718.890625
2299,24.62,1637343718.90625
2300,24.1,1637343718.921875
2301,22.37,1637343718.9375
2302,20.15,1637343718.953125
2303,18.13,1637343718.96875
2304,16.78,1637343718.984375
2305,16.29,1637343719.0
2306,16.59,1637343719.015625
2307,17.4,1637343719.03125
2308,18.37,1637343719.046875
2309,19.12,1637343719.0625
2310,19.38,1637343719.078125
2311,18.96,1637343719.09375
2312,17.87,1637343719.109375
2313,16.24,1637343719.125
2314,14.31,1637343719.140625
2315,12.38,1637343719.15625
2316,10.69,1637343719.171875
2317,9.41,1637343719.1875
2318,8.58,1637343719.203125
2319,8.13,1637343719.21875
2320,7.89,1637343719.234375
2321,7.68,1637343719.25
2322,7.34,1637343719.265625
2323,6.81,1637343719.28125
2324,6.14,1637343719.296875
2325,5.45,1637343719.3125
2326,4.86,1637343719.328125
2327,4.38,1637343719.34375
2328,3.97,1637343719.359375
2329,3.42,1637343719.375
2330,2.54,1637343719.390625
2331,1.2,1637343719.40625
2332,-0.56,1637343719.421875
2333,-2.51,1637343719.4375
2334,-4.3,1637343719.453125
2335,-5.63,1637343719.46875
2336,-6.4,1637343719.484375
2337,-6.8,1637343719.5
2338,-7.23,1637343719.515625
2339,-8.19,1637343719.53125
2340,-9.98,1637343719.546875
2341,-12.53,1637343719.5625
2342,-15.42,1637343719.578125
2343,-18.08,1637343719.59375
2344,-19.97,1637343719.609375
2345,-20.86,1637343719.625
2346,-20.95,1637343719.640625
2347,-20.77,1637343719.65625
2348,-21.03,1637343719.671875
2349,-22.4,1637343719.6875
2350,-25.33,1637343719.703125
2351,-29.89,1637343719.71875
2352,-35.59,1637343719.734375
2353,-41.3,1637343719.75
2354,-45.38,1637343719.765625
2355,-45.99,1637343719.78125
2356,-41.79,1637343719.796875
2357,-32.57,1637343719.8125
2358,-19.55,1637343719.828125
2359,-5.18,1637343719.84375
2360,7.67,1637343719.859375
2361,16.6,1637343719.875
2362,20.57,1637343719.890625
2363,19.99,1637343719.90625
2364,16.43,1637343719.921875
2365,11.8,1637343719.9375
2366,7.79,1637343719.953125
2367,5.44,1637343719.96875
2368,5.14,1637343719.984375
2369,6.78,1637343720.0
2370,9.91,1637343720.015625
2371,13.84,1637343720.03125
2372,17.76,1637343720.046875
2373,20.88,1637343720.0625
2374,22.6,1637343720.078125
2375,22.66,1637343720.09375
2376,21.25,1637343720.109375
2377,18.84,1637343720.125
2378,16.16,1637343720.140625
2379,13.9,1637343720.15625
2380,12.58,1637343720.171875
2381,12.42,1637343720.1875
2382,13.22,1637343720.203125
2383,14.4,1637343720.21875
2384,15.13,1637343720.234375
2385,14.72,1637343720.25
2386,12.7,1637343720.265625
2387,9.19,1637343720.28125
2388,4.69,1637343720.296875
2389,-0.03,1637343720.3125
2390,-4.23,1637343720.328125
2391,-7.34,1637343720.34375
2392,-8.99,1637343720.359375
2393,-9.07,1637343720.375
2394,-7.63,1637343720.390625
2395,-4.91,1637343720.40625
2396,-1.42,1637343720.421875
2397,2.21,1637343720.4375
2398,5.31,1637343720.453125
2399,7.42,1637343720.46875
2400,8.4,1637343720.484375
2401,8.4,1637343720.5
2402,7.69,1637343720.515625
2403,6.39,1637343720.53125
2404,4.34,1637343720.546875
2405,1.04,1637343720.5625
2406,-4.22,1637343720.578125
2407,-12.12,1637343720.59375
2408,-23.05,1637343720.609375
2409,-36.83,1637343720.625
2410,-52.53,1637343720.640625
2411,-68.48,1637343720.65625
2412,-82.46,1637343720.671875
2413,-92.12,1637343720.6875
2414,-95.5,1637343720.703125
2415,-91.68,1637343720.71875
2416,-81.11,1637343720.734375
2417,-65.66,1637343720.75
2418,-48.3,1637343720.765625
2419,-32.37,1637343720.78125
2420,-20.8,1637343720.796875
2421,-15.46,1637343720.8125
2422,-16.81,1637343720.828125
2423,-23.98,1637343720.84375
2424,-35.16,1637343720.859375
2425,-48.11,1637343720.875
2426,-60.68,1637343720.890625
2427,-71.15,1637343720.90625
2428,-78.44,1637343720.921875
2429,-82.29,1637343720.9375
2430,-83.39,1637343720.953125
2431,-83.41,1637343720.96875
2432,-84.69,1637343720.984375
2433,-89.61,1637343721.0
2434,-99.89,1637343721.015625
2435,-115.85,1637343721.03125
2436,-136.26,1637343721.046875
2437,-158.78,1637343721.0625
2438,-180.57,1637343721.078125
2439,-199.15,1637343721.09375
2440,-212.78,1637343721.109375
2441,-220.55,1637343721.125
2442,-222.2,1637343721.140625
2443,-218.05,1637343721.15625
2444,-208.9,1637343721.171875
2445,-196.15,1637343721.1875
2446,-181.75,1637343721.203125
2447,-167.83,1637343721.21875
2448,-156.15,1637343721.234375
2449,-147.52,1637343721.25
2450,-141.57,1637343721.265625
2451,-136.89,1637343721.28125
2452,-131.61,1637343721.296875
2453,-124.05,1637343721.3125
2454,-113.32,1637343721.328125
2455,-99.38,1637343721.34375
2456,-83.01,1637343721.359375
2457,-65.32,1637343721.375
2458,-47.35,1637343721.390625
2459,-29.92,1637343721.40625
2460,-13.52,1637343721.421875
2461,1.51,1637343721.4375
2462,14.85,1637343721.453125
2463,26.06,1637343721.46875
2464,34.7,1637343721.484375
2465,40.46,1637343721.5
2466,43.34,1637343721.515625
2467,43.72,1637343721.53125
2468,42.38,1637343721.546875
2469,40.49,1637343721.5625
2470,39.65,1637343721.578125
2471,41.74,1637343721.59375
2472,48.65,1637343721.609375
2473,61.85,1637343721.625
2474,81.76,1637343721.640625
2475,107.49,1637343721.65625
2476,136.98,1637343721.671875
2477,167.76,1637343721.6875
2478,198.09,1637343721.703125
2479,228.03,1637343721.71875
2480,259.78,1637343721.734375
2481,296.66,1637343721.75
2482,341.03,1637343721.765625
2483,391.88,1637343721.78125
2484,443.73,1637343721.796875
2485,487.57,1637343721.8125
2486,513.96,1637343721.828125
2487,516.79,1637343721.84375
2488,495.91,1637343721.859375
2489,457.04,1637343721.875
2490,409.2,1637343721.890625
2491,360.78,1637343721.90625
2492,316.44,1637343721.921875
2493,276.23,1637343721.9375
2494,237.02,1637343721.953125
2495,194.92,1637343721.96875
2496,146.96,1637343721.984375
2497,91.58,1637343722.0
2498,28.16,1637343722.015625
2499,-43.05,1637343722.03125
2500,-120.28,1637343722.046875
2501,-199.37,1637343722.0625
2502,-273.69,1637343722.078125
2503,-335.7,1637343722.09375
2504,-379.49,1637343722.109375
2505,-403.03,1637343722.125
2506,-408.93,1637343722.140625
2507,-403.12,1637343722.15625
2508,-392.26,1637343722.171875
2509,-381.28,1637343722.1875
2510,-372.23,1637343722.203125
2511,-364.59,1637343722.21875
2512,-356.53,1637343722.234375
2513,-345.88,1637343722.25
2514,-330.62,1637343722.265625
2515,-308.73,1637343722.28125
2516,-278.03,1637343722.296875
2517,-236.43,1637343722.3125
2518,-182.83,1637343722.328125
2519,-118.16,1637343722.34375
2520,-46.08,1637343722.359375
2521,27.16,1637343722.375
2522,93.95,1637343722.390625
2523,147.55,1637343722.40625
2524,184.21,1637343722.421875
2525,204.39,1637343722.4375
2526,212.33,1637343722.453125
2527,214.22,1637343722.46875
2528,215.87,1637343722.484375
2529,220.84,1637343722.5
2530,229.88,1637343722.515625
2531,241.51,1637343722.53125
2532,253.32,1637343722.546875
2533,262.98,1637343722.5625
2534,268.93,1637343722.578125
2535,270.46,1637343722.59375
2536,267.7,1637343722.609375
2537,261.51,1637343722.625
2538,253.34,1637343722.640625
2539,244.86,1637343722.65625
2540,237.53,1637343722.671875
2541,232.43,1637343722.6875
2542,230.28,1637343722.703125
2543,231.73,1637343722.71875
2544,237.41,1637343722.734375
2545,247.53,1637343722.75
2546,261.06,1637343722.765625
2547,274.97,1637343722.78125
2548,284.45,1637343722.796875
2549,284.18,1637343722.8125
2550,270.24,1637343722.828125
2551,241.68,1637343722.84375
2552,200.81,1637343722.859375
2553,152.2,1637343722.875
2554,100.92,1637343722.890625
2555,51.2,1637343722.90625
2556,6.03,1637343722.921875
2557,-32.74,1637343722.9375
2558,-64.17,1637343722.953125
2559,-88.6,1637343722.96875
2560,-107.88,1637343722.984375
2561,-125.11,1637343723.0
2562,-143.41,1637343723.015625
2563,-164.06,1637343723.03125
2564,-185.14,1637343723.046875
2565,-201.96,1637343723.0625
2566,-209.33,1637343723.078125
2567,-204.84,1637343723.09375
2568,-191.13,1637343723.109375
2569,-175.58,1637343723.125
2570,-167.34,1637343723.140625
2571,-173.19,1637343723.15625
2572,-194.28,1637343723.171875
2573,-225.44,1637343723.1875
2574,-257.26,1637343723.203125
2575,-279.69,1637343723.21875
2576,-285.46,1637343723.234375
2577,-271.92,1637343723.25
2578,-241.07,1637343723.265625
2579,-197.97,1637343723.28125
2580,-148.7,1637343723.296875
2581,-98.62,1637343723.3125
2582,-51.53,1637343723.328125
2583,-9.78,1637343723.34375
2584,25.35,1637343723.359375
2585,53.23,1637343723.375
2586,73.83,1637343723.390625
2587,87.73,1637343723.40625
2588,96.2,1637343723.421875
2589,100.93,1637343723.4375
2590,103.59,1637343723.453125
2591,105.19,1637343723.46875
2592,105.72,1637343723.484375
2593,104.25,1637343723.5
2594,99.53,1637343723.515625
2595,90.97,1637343723.53125
2596,79.14,1637343723.546875
2597,65.83,1637343723.5625
2598,53.3,1637343723.578125
2599,43.25,1637343723.59375
2600,36.04,1637343723.609375
2601,30.73,1637343723.625
2602,25.8,1637343723.640625
2603,20.14,1637343723.65625
2604,13.84,1637343723.671875
2605,8.38,1637343723.6875
2606,5.97,1637343723.703125
2607,8.63,1637343723.71875
2608,17.07,1637343723.734375
2609,30.0,1637343723.75
2610,44.19,1637343723.765625
2611,55.13,1637343723.78125
2612,58.45,1637343723.796875
2613,51.44,1637343723.8125
2614,34.3,1637343723.828125
2615,10.28,1637343723.84375
2616,-15.27,1637343723.859375
2617,-36.7,1637343723.875
2618,-50.03,1637343723.890625
2619,-54.07,1637343723.90625
2620,-50.3,1637343723.921875
2621,-41.84,1637343723.9375
2622,-32.0,1637343723.953125
2623,-23.26,1637343723.96875
2624,-17.1,1637343723.984375
2625,-14.24,1637343724.0
2626,-15.08,1637343724.015625
2627,-19.65,1637343724.03125
2628,-27.43,1637343724.046875
2629,-37.04,1637343724.0625
2630,-46.34,1637343724.078125
2631,-52.98,1637343724.09375
2632,-55.15,1637343724.109375
2633,-52.25,1637343724.125
2634,-45.11,1637343724.140625
2635,-35.63,1637343724.15625
2636,-26.04,1637343724.171875
2637,-18.07,1637343724.1875
2638,-12.44,1637343724.203125
2639,-8.76,1637343724.21875
2640,-5.92,1637343724.234375
2641,-2.71,1637343724.25
2642,1.61,1637343724.265625
2643,7.0,1637343724.28125
2644,12.78,1637343724.296875
2645,17.95,1637343724.3125
2646,21.68,1637343724.328125
2647,23.65,1637343724.34375
2648,24.08,1637343724.359375
2649,23.54,1637343724.375
2650,22.73,1637343724.390625
2651,22.15,1637343724.40625
2652,22.0,1637343724.421875
2653,22.25,1637343724.4375
2654,22.74,1637343724.453125
2655,23.35,1637343724.46875
2656,24.03,1637343724.484375
2657,24.81,1637343724.5
2658,25.71,1637343724.515625
2659,26.67,1637343724.53125
2660,27.59,1637343724.546875
2661,28.36,1637343724.5625
2662,28.86,1637343724.578125
2663,29.08,1637343724.59375
2664,29.08,1637343724.609375
2665,28.92,1637343724.625
2666,28.71,1637343724.640625
2667,28.44,1637343724.65625
2668,28.11,1637343724.671875
2669,27.67,1637343724.6875
2670,27.07,1637343724.703125
2671,26.25,1637343724.71875
2672,25.12,1637343724.734375
2673,23.61,1637343724.75
2674,21.65,1637343724.765625
2675,19.16,1637343724.78125
2676,16.11,1637343724.796875
2677,12.55,1637343724.8125
2678,8.52,1637343724.828125
2679,4.13,1637343724.84375
2680,-0.54,1637343724.859375
2681,-5.48,1637343724.875
2682,-10.73,1637343724.890625
2683,-16.4,1637343724.90625
2684,-22.7,1637343724.921875
2685,-29.72,1637343724.9375
2686,-37.47,1637343724.953125
2687,-45.73,1637343724.96875
2688,-54.02,1637343724.984375
2689,-61.65,1637343725.0
2690,-67.88,1637343725.015625
2691,-71.98,1637343725.03125
2692,-73.38,1637343725.046875
2693,-71.81,1637343725.0625
2694,-67.3,1637343725.078125
2695,-60.25,1637343725.09375
2696,-51.46,1637343725.109375
2697,-42.03,1637343725.125
2698,-33.22,1637343725.140625
2699,-26.07,1637343725.15625
2700,-21.23,1637343725.171875
2701,-18.64,1637343725.1875
2702,-17.63,1637343725.203125
2703,-17.01,1637343725.21875
2704,-15.55,1637343725.234375
2705,-12.27,1637343725.25
2706,-6.88,1637343725.265625
2707,0.25,1637343725.28125
2708,8.16,1637343725.296875
2709,15.73,1637343725.3125
2710,22.0,1637343725.328125
2711,26.5,1637343725.34375
2712,29.26,1637343725.359375
2713,30.69,1637343725.375
2714,31.34,1637343725.390625
2715,31.58,1637343725.40625
2716,31.57,1637343725.421875
2717,31.33,1637343725.4375
2718,30.85,1637343725.453125
2719,30.26,1637343725.46875
2720,29.72,1637343725.484375
2721,29.42,1637343725.5
2722,29.31,1637343725.515625
2723,29.15,1637343725.53125
2724,28.63,1637343725.546875
2725,27.51,1637343725.5625
2726,25.85,1637343725.578125
2727,23.93,1637343725.59375
2728,22.19,1637343725.609375
2729,20.98,1637343725.625
2730,20.5,1637343725.640625
2731,20.63,1637343725.65625
2732,21.09,1637343725.671875
2733,21.59,1637343725.6875
2734,21.87,1637343725.703125
2735,21.82,1637343725.71875
2736,21.52,1637343725.734375
2737,21.13,1637343725.75
2738,20.81,1637343725.765625
2739,20.61,1637343725.78125
2740,20.31,1637343725.796875
2741,19.55,1637343725.8125
2742,17.97,1637343725.828125
2743,15.38,1637343725.84375
2744,11.93,1637343725.859375
2745,8.11,1637343725.875
2746,4.55,1637343725.890625
2747,1.82,1637343725.90625
2748,0.19,1637343725.921875
2749,-0.46,1637343725.9375
2750,-0.55,1637343725.953125
2751,-0.68,1637343725.96875
2752,-1.39,1637343725.984375
2753,-3.08,1637343726.0
2754,-5.82,1637343726.015625
2755,-9.41,1637343726.03125
2756,-13.46,1637343726.046875
2757,-17.45,1637343726.0625
2758,-20.95,1637343726.078125
2759,-23.61,1637343726.09375
2760,-25.3,1637343726.109375
2761,-26.02,1637343726.125
2762,-25.85,1637343726.140625
2763,-24.92,1637343726.15625
2764,-23.44,1637343726.171875
2765,-21.6,1637343726.1875
2766,-19.64,1637343726.203125
2767,-17.7,1637343726.21875
2768,-15.83,1637343726.234375
2769,-13.95,1637343726.25
2770,-11.91,1637343726.265625
2771,-9.52,1637343726.28125
2772,-6.68,1637343726.296875
2773,-3.36,1637343726.3125
2774,0.33,1637343726.328125
2775,4.2,1637343726.34375
2776,8.02,1637343726.359375
2777,11.58,1637343726.375
2778,14.66,1637343726.390625
2779,17.08,1637343726.40625
2780,18.69,1637343726.421875
2781,19.47,1637343726.4375
2782,19.49,1637343726.453125
2783,18.99,1637343726.46875
2784,18.31,1637343726.484375
2785,17.84,1637343726.5
2786,17.8,1637343726.515625
2787,18.25,1637343726.53125
2788,19.01,1637343726.546875
2789,19.88,1637343726.5625
2790,20.59,1637343726.578125
2791,21.02,1637343726.59375
2792,21.11,1637343726.609375
2793,20.89,1637343726.625
2794,20.42,1637343726.640625
2795,19.74,1637343726.65625
2796,18.86,1637343726.671875
2797,17.81,1637343726.6875
2798,16.58,1637343726.703125
2799,15.13,1637343726.71875
2800,13.34,1637343726.734375
2801,11.03,1637343726.75
2802,8.06,1637343726.765625
2803,4.35,1637343726.78125
2804,-0.0,1637343726.796875
2805,-4.74,1637343726.8125
2806,-9.46,1637343726.828125
2807,-13.76,1637343726.84375
2808,-17.34,1637343726.859375
2809,-20.19,1637343726.875
2810,-22.54,1637343726.890625
2811,-24.84,1637343726.90625
2812,-27.61,1637343726.921875
2813,-31.17,1637343726.9375
2814,-35.56,1637343726.953125
2815,-40.45,1637343726.96875
2816,-45.21,1637343726.984375
2817,-49.1,1637343727.0
2818,-51.36,1637343727.015625
2819,-51.46,1637343727.03125
2820,-49.25,1637343727.046875
2821,-45.01,1637343727.0625
2822,-39.36,1637343727.078125
2823,-33.18,1637343727.09375
2824,-27.3,1637343727.109375
2825,-22.3,1637343727.125
2826,-18.36,1637343727.140625
2827,-15.24,1637343727.15625
2828,-12.48,1637343727.171875
2829,-9.61,1637343727.1875
2830,-6.35,1637343727.203125
2831,-2.68,1637343727.21875
2832,1.17,1637343727.234375
2833,4.88,1637343727.25
2834,8.14,1637343727.265625
2835,10.8,1637343727.28125
2836,12.88,1637343727.296875
2837,14.57,1637343727.3125
2838,16.09,1637343727.328125
2839,17.63,1637343727.34375
2840,19.2,1637343727.359375
2841,20.71,1637343727.375
2842,21.99,1637343727.390625
2843,23.03,1637343727.40625
2844,23.89,1637343727.421875
2845,24.76,1637343727.4375
2846,25.79,1637343727.453125
2847,27.01,1637343727.46875
2848,28.29,1637343727.484375
2849,29.39,1637343727.5
2850,30.13,1637343727.515625
2851,30.45,1637343727.53125
2852,30.48,1637343727.546875
2853,30.45,1637343727.5625
2854,30.5,1637343727.578125
2855,30.66,1637343727.59375
2856,30.81,1637343727.609375
2857,30.84,1637343727.625
2858,30.74,1637343727.640625
2859,30.6,1637343727.65625
2860,30.54,1637343727.671875
2861,30.61,1637343727.6875
2862,30.73,1637343727.703125
2863,30.72,1637343727.71875
2864,30.42,1637343727.734375
2865,29.74,1637343727.75
2866,28.77,1637343727.765625
2867,27.66,1637343727.78125
2868,26.56,1637343727.796875
2869,25.48,1637343727.8125
2870,24.28,1637343727.828125
2871,22.74,1637343727.84375
2872,20.67,1637343727.859375
2873,18.0,1637343727.875
2874,14.77,1637343727.890625
2875,11.15,1637343727.90625
2876,7.3,1637343727.921875
2877,3.37,1637343727.9375
2878,-0.52,1637343727.953125
2879,-4.31,1637343727.96875
2880,-7.93,1637343727.984375
2881,-11.39,1637343728.0
2882,-14.82,1637343728.015625
2883,-18.41,1637343728.03125
2884,-22.38,1637343728.046875
2885,-26.8,1637343728.0625
2886,-31.43,1637343728.078125
2887,-35.78,1637343728.09375
2888,-39.21,1637343728.109375
2889,-41.19,1637343728.125
2890,-41.52,1637343728.140625
2891,-40.45,1637343728.15625
2892,-38.46,1637343728.171875
2893,-36.09,1637343728.1875
2894,-33.73,1637343728.203125
2895,-31.54,1637343728.21875
2896,-29.55,1637343728.234375
2897,-27.72,1637343728.25
2898,-25.95,1637343728.265625
2899,-24.21,1637343728.28125
2900,-22.37,1637343728.296875
2901,-20.27,1637343728.3125
2902,-17.76,1637343728.328125
2903,-14.8,1637343728.34375
2904,-11.49,1637343728.359375
2905,-8.09,1637343728.375
2906,-4.87,1637343728.390625
2907,-2.04,1637343728.40625
2908,0.34,1637343728.421875
2909,2.37,1637343728.4375
2910,4.26,1637343728.453125
2911,6.22,1637343728.46875
2912,8.36,1637343728.484375
2913,10.7,1637343728.5
2914,13.15,1637343728.515625
2915,15.59,1637343728.53125
2916,17.86,1637343728.546875
2917,19.92,1637343728.5625
2918,21.76,1637343728.578125
2919,23.44,1637343728.59375
2920,25.0,1637343728.609375
2921,26.46,1637343728.625
2922,27.77,1637343728.640625
2923,28.83,1637343728.65625
2924,29.55,1637343728.671875
2925,29.84,1637343728.6875
2926,29.68,1637343728.703125
2927,29.04,1637343728.71875
2928,27.99,1637343728.734375
2929,26.54,1637343728.75
2930,24.8,1637343728.765625
2931,22.87,1637343728.78125
2932,20.85,1637343728.796875
2933,18.87,1637343728.8125
2934,16.95,1637343728.828125
2935,15.11,1637343728.84375
2936,13.21,1637343728.859375
2937,11.17,1637343728.875
2938,8.88,1637343728.890625
2939,6.31,1637343728.90625
2940,3.58,1637343728.921875
2941,0.81,1637343728.9375
2942,-1.83,1637343728.953125
2943,-4.27,1637343728.96875
2944,-6.54,1637343728.984375
2945,-8.8,1637343729.0
2946,-11.28,1637343729.015625
2947,-14.2,1637343729.03125
2948,-17.66,1637343729.046875
2949,-21.63,1637343729.0625
2950,-25.89,1637343729.078125
2951,-30.08,1637343729.09375
2952,-33.77,1637343729.109375
2953,-36.52,1637343729.125
2954,-38.0,1637343729.140625
2955,-38.14,1637343729.15625
2956,-37.01,1637343729.171875
2957,-34.88,1637343729.1875
2958,-31.99,1637343729.203125
2959,-28.64,1637343729.21875
2960,-25.02,1637343729.234375
2961,-21.31,1637343729.25
2962,-17.68,1637343729.265625
2963,-14.26,1637343729.28125
2964,-11.14,1637343729.296875
2965,-8.31,1637343729.3125
2966,-5.72,1637343729.328125
2967,-3.23,1637343729.34375
2968,-0.79,1637343729.359375
2969,1.64,1637343729.375
2970,4.03,1637343729.390625
2971,6.36,1637343729.40625
2972,8.62,1637343729.421875
2973,10.78,1637343729.4375
2974,12.76,1637343729.453125
2975,14.46,1637343729.46875
2976,15.76,1637343729.484375
2977,16.6,1637343729.5
2978,17.04,1637343729.515625
2979,17.24,1637343729.53125
2980,17.4,1637343729.546875
2981,17.69,1637343729.5625
2982,18.18,1637343729.578125
2983,18.86,1637343729.59375
2984,19.62,1637343729.609375
2985,20.31,1637343729.625
2986,20.76,1637343729.640625
2987,20.82,1637343729.65625
2988,20.43,1637343729.671875
2989,19.61,1637343729.6875
2990,18.52,1637343729.703125
2991,17.39,1637343729.71875
2992,16.41,1637343729.734375
2993,15.61,1637343729.75
2994,14.94,1637343729.765625
2995,14.25,1637343729.78125
2996,13.37,1637343729.796875
2997,12.26,1637343729.8125
2998,10.99,1637343729.828125
2999,9.69,1637343729.84375
3000,8.48,1637343729.859375
3001,7.4,1637343729.875
3002,6.34,1637343729.890625
3003,5.09,1637343729.90625
3004,3.47,1637343729.921875
3005,1.43,1637343729.9375
3006,-0.93,1637343729.953125
3007,-3.35,1637343729.96875
3008,-5.59,1637343729.984375
3009,-7.45,1637343730.0
3010,-8.96,1637343730.015625
3011,-10.31,1637343730.03125
3012,-11.69,1637343730.046875
3013,-13.24,1637343730.0625
3014,-14.97,1637343730.078125
3015,-16.8,1637343730.09375
3016,-18.71,1637343730.109375
3017,-20.8,1637343730.125
3018,-23.22,1637343730.140625
3019,-26.08,1637343730.15625
3020,-29.24,1637343730.171875
3021,-32.35,1637343730.1875
3022,-34.87,1637343730.203125
3023,-36.32,1637343730.21875
3024,-36.36,1637343730.234375
3025,-35.03,1637343730.25
3026,-32.63,1637343730.265625
3027,-29.65,1637343730.28125
3028,-26.59,1637343730.296875
3029,-23.74,1637343730.3125
3030,-21.17,1637343730.328125
3031,-18.81,1637343730.34375
3032,-16.45,1637343730.359375
3033,-13.98,1637343730.375
3034,-11.34,1637343730.390625
3035,-8.61,1637343730.40625
3036,-5.9,1637343730.421875
3037,-3.35,1637343730.4375
3038,-0.99,1637343730.453125
3039,1.23,1637343730.46875
3040,3.3,1637343730.484375
3041,5.21,1637343730.5
3042,6.85,1637343730.515625
3043,8.14,1637343730.53125
3044,9.07,1637343730.546875
3045,9.72,1637343730.5625
3046,10.26,1637343730.578125
3047,10.83,1637343730.59375
3048,11.54,1637343730.609375
3049,12.36,1637343730.625
3050,13.22,1637343730.640625
3051,13.96,1637343730.65625
3052,14.42,1637343730.671875
3053,14.53,1637343730.6875
3054,14.28,1637343730.703125
3055,13.82,1637343730.71875
3056,13.36,1637343730.734375
3057,13.12,1637343730.75
3058,13.17,1637343730.765625
3059,13.46,1637343730.78125
3060,13.79,1637343730.796875
3061,13.95,1637343730.8125
3062,13.87,1637343730.828125
3063,13.62,1637343730.84375
3064,13.38,1637343730.859375
3065,13.26,1637343730.875
3066,13.23,1637343730.890625
3067,13.08,1637343730.90625
3068,12.54,1637343730.921875
3069,11.44,1637343730.9375
3070,9.83,1637343730.953125
3071,7.91,1637343730.96875
3072,6.04,1637343730.984375
3073,4.48,1637343731.0
3074,3.34,1637343731.015625
3075,2.51,1637343731.03125
3076,1.77,1637343731.046875
3077,0.9,1637343731.0625
3078,-0.23,1637343731.078125
3079,-1.61,1637343731.09375
3080,-3.16,1637343731.109375
3081,-4.81,1637343731.125
3082,-6.54,1637343731.140625
3083,-8.4,1637343731.15625
3084,-10.5,1637343731.171875
3085,-12.94,1637343731.1875
3086,-15.82,1637343731.203125
3087,-19.23,1637343731.21875
3088,-23.22,1637343731.234375
3089,-27.75,1637343731.25
3090,-32.59,1637343731.265625
3091,-37.23,1637343731.28125
3092,-41.01,1637343731.296875
3093,-43.28,1637343731.3125
3094,-43.71,1637343731.328125
3095,-42.41,1637343731.34375
3096,-39.92,1637343731.359375
3097,-36.92,1637343731.375
3098,-33.99,1637343731.390625
3099,-31.39,1637343731.40625
3100,-29.11,1637343731.421875
3101,-26.94,1637343731.4375
3102,-24.82,1637343731.453125
3103,-22.86,1637343731.46875
3104,-21.38,1637343731.484375
3105,-20.81,1637343731.5
3106,-21.39,1637343731.515625
3107,-23.08,1637343731.53125
3108,-25.48,1637343731.546875
3109,-27.94,1637343731.5625
3110,-29.79,1637343731.578125
3111,-30.43,1637343731.59375
3112,-29.56,1637343731.609375
3113,-27.1,1637343731.625
3114,-23.12,1637343731.640625
3115,-17.78,1637343731.65625
3116,-11.3,1637343731.671875
3117,-4.02,1637343731.6875
3118,3.56,1637343731.703125
3119,10.8,1637343731.71875
3120,17.08,1637343731.734375
3121,21.99,1637343731.75
3122,25.43,1637343731.765625
3123,27.61,1637343731.78125
3124,28.9,1637343731.796875
3125,29.73,1637343731.8125
3126,30.37,1637343731.828125
3127,30.98,1637343731.84375
3128,31.53,1637343731.859375
3129,31.93,1637343731.875
3130,31.99,1637343731.890625
3131,31.56,1637343731.90625
3132,30.51,1637343731.921875
3133,28.92,1637343731.9375
3134,26.95,1637343731.953125
3135,24.87,1637343731.96875
3136,22.95,1637343731.984375
3137,21.36,1637343732.0
3138,20.06,1637343732.015625
3139,18.78,1637343732.03125
3140,17.15,1637343732.046875
3141,14.73,1637343732.0625
3142,11.27,1637343732.078125
3143,6.77,1637343732.09375
3144,1.54,1637343732.109375
3145,-3.93,1637343732.125
3146,-9.14,1637343732.140625
3147,-13.76,1637343732.15625
3148,-17.71,1637343732.171875
3149,-21.16,1637343732.1875
3150,-24.33,1637343732.203125
3151,-27.46,1637343732.21875
3152,-30.63,1637343732.234375
3153,-33.88,1637343732.25
3154,-37.17,1637343732.265625
3155,-40.44,1637343732.28125
3156,-43.55,1637343732.296875
3157,-46.21,1637343732.3125
3158,-48.02,1637343732.328125
3159,-48.52,1637343732.34375
3160,-47.38,1637343732.359375
3161,-44.55,1637343732.375
3162,-40.29,1637343732.390625
3163,-35.19,1637343732.40625
3164,-29.9,1637343732.421875
3165,-24.99,1637343732.4375
3166,-20.78,1637343732.453125
3167,-17.36,1637343732.46875
3168,-14.6,1637343732.484375
3169,-12.27,1637343732.5
3170,-10.14,1637343732.515625
3171,-8.03,1637343732.53125
3172,-5.79,1637343732.546875
3173,-3.33,1637343732.5625
3174,-0.62,1637343732.578125
3175,2.33,1637343732.59375
3176,5.42,1637343732.609375
3177,8.49,1637343732.625
3178,11.25,1637343732.640625
3179,13.46,1637343732.65625
3180,14.94,1637343732.671875
3181,15.69,1637343732.6875
3182,15.95,1637343732.703125
3183,16.05,1637343732.71875
3184,16.36,1637343732.734375
3185,17.08,1637343732.75
3186,18.15,1637343732.765625
3187,19.44,1637343732.78125
3188,20.74,1637343732.796875
3189,21.93,1637343732.8125
3190,22.98,1637343732.828125
3191,23.87,1637343732.84375
3192,24.52,1637343732.859375
3193,24.81,1637343732.875
3194,24.62,1637343732.890625
3195,23.93,1637343732.90625
3196,22.89,1637343732.921875
3197,21.73,1637343732.9375
3198,20.63,1637343732.953125
3199,19.72,1637343732.96875
3200,18.94,1637343732.984375
3201,18.19,1637343733.0
3202,17.36,1637343733.015625
3203,16.43,1637343733.03125
3204,15.42,1637343733.046875
3205,14.36,1637343733.0625
3206,13.2,1637343733.078125
3207,11.78,1637343733.09375
3208,9.94,1637343733.109375
3209,7.56,1637343733.125
3210,4.57,1637343733.140625
3211,1.04,1637343733.15625
3212,-2.89,1637343733.171875
3213,-7.07,1637343733.1875
3214,-11.35,1637343733.203125
3215,-15.63,1637343733.21875
3216,-19.78,1637343733.234375
3217,-23.66,1637343733.25
3218,-27.14,1637343733.265625
3219,-30.15,1637343733.28125
3220,-32.75,1637343733.296875
3221,-35.13,1637343733.3125
3222,-37.5,1637343733.328125
3223,-39.97,1637343733.34375
3224,-42.39,1637343733.359375
3225,-44.39,1637343733.375
3226,-45.5,1637343733.390625
3227,-45.33,1637343733.40625
3228,-43.71,1637343733.421875
3229,-40.68,1637343733.4375
3230,-36.55,1637343733.453125
3231,-31.68,1637343733.46875
3232,-26.46,1637343733.484375
3233,-21.24,1637343733.5
3234,-16.32,1637343733.515625
3235,-11.95,1637343733.53125
3236,-8.3,1637343733.546875
3237,-5.4,1637343733.5625
3238,-3.09,1637343733.578125
3239,-1.12,1637343733.59375
3240,0.85,1637343733.609375
3241,3.03,1637343733.625
3242,5.53,1637343733.640625
3243,8.22,1637343733.65625
3244,10.85,1637343733.671875
3245,13.13,1637343733.6875
3246,14.88,1637343733.703125
3247,16.09,1637343733.71875
3248,16.88,1637343733.734375
3249,17.53,1637343733.75
3250,18.27,1637343733.765625
3251,19.23,1637343733.78125
3252,20.38,1637343733.796875
3253,21.58,1637343733.8125
3254,22.62,1637343733.828125
3255,23.34,1637343733.84375
3256,23.62,1637343733.859375
3257,23.44,1637343733.875
3258,22.8,1637343733.890625
3259,21.77,1637343733.90625
3260,20.36,1637343733.921875
3261,18.63,1637343733.9375
3262,16.62,1637343733.953125
3263,14.44,1637343733.96875
3264,12.22,1637343733.984375
3265,10.04,1637343734.0
3266,7.98,1637343734.015625
3267,6.06,1637343734.03125
3268,4.28,1637343734.046875
3269,2.67,1637343734.0625
3270,1.21,1637343734.078125
3271,-0.14,1637343734.09375
3272,-1.48,1637343734.109375
3273,-2.95,1637343734.125
3274,-4.67,1637343734.140625
3275,-6.72,1637343734.15625
3276,-9.05,1637343734.171875
3277,-11.51,1637343734.1875
3278,-13.93,1637343734.203125
3279,-16.15,1637343734.21875
3280,-18.23,1637343734.234375
3281,-20.32,1637343734.25
3282,-22.61,1637343734.265625
3283,-25.22,1637343734.28125
3284,-28.01,1637343734.296875
3285,-30.66,1637343734.3125
3286,-32.66,1637343734.328125
3287,-33.6,1637343734.34375
3288,-33.28,1637343734.359375
3289,-31.78,1637343734.375
3290,-29.47,1637343734.390625
3291,-26.76,1637343734.40625
3292,-24.0,1637343734.421875
3293,-21.38,1637343734.4375
3294,-18.88,1637343734.453125
3295,-16.39,1637343734.46875
3296,-13.77,1637343734.484375
3297,-10.95,1637343734.5
3298,-7.89,1637343734.515625
3299,-4.64,1637343734.53125
3300,-1.26,1637343734.546875
3301,2.17,1637343734.5625
3302,5.61,1637343734.578125
3303,8.99,1637343734.59375
3304,12.24,1637343734.609375
3305,15.22,1637343734.625
3306,17.78,1637343734.640625
3307,19.85,1637343734.65625
3308,21.44,1637343734.671875
3309,22.72,1637343734.6875
3310,23.95,1637343734.703125
3311,25.33,1637343734.71875
3312,26.92,1637343734.734375
3313,28.61,1637343734.75
3314,30.2,1637343734.765625
3315,31.48,1637343734.78125
3316,32.39,1637343734.796875
3317,32.95,1637343734.8125
3318,33.27,1637343734.828125
3319,33.38,1637343734.84375
3320,33.22,1637343734.859375
3321,32.71,1637343734.875
3322,31.78,1637343734.890625
3323,30.45,1637343734.90625
3324,28.86,1637343734.921875
3325,27.18,1637343734.9375
3326,25.51,1637343734.953125
3327,23.85,1637343734.96875
3328,22.14,1637343734.984375
3329,20.26,1637343735.0
3330,18.16,1637343735.015625
3331,15.82,1637343735.03125
3332,13.29,1637343735.046875
3333,10.59,1637343735.0625
3334,7.76,1637343735.078125
3335,4.78,1637343735.09375
3336,1.66,1637343735.109375
3337,-1.56,1637343735.125
3338,-4.87,1637343735.140625
3339,-8.26,1637343735.15625
3340,-11.79,1637343735.171875
3341,-15.5,1637343735.1875
3342,-19.42,1637343735.203125
3343,-23.45,1637343735.21875
3344,-27.41,1637343735.234375
3345,-31.08,1637343735.25
3346,-34.37,1637343735.265625
3347,-37.33,1637343735.28125
3348,-40.17,1637343735.296875
3349,-43.16,1637343735.3125
3350,-46.33,1637343735.328125
3351,-49.5,1637343735.34375
3352,-52.21,1637343735.359375
3353,-53.9,1637343735.375
3354,-54.11,1637343735.390625
3355,-52.6,1637343735.40625
3356,-49.43,1637343735.421875
3357,-44.9,1637343735.4375
3358,-39.46,1637343735.453125
3359,-33.55,1637343735.46875
3360,-27.64,1637343735.484375
3361,-22.09,1637343735.5
3362,-17.13,1637343735.515625
3363,-12.77,1637343735.53125
3364,-8.89,1637343735.546875
3365,-5.25,1637343735.5625
3366,-1.56,1637343735.578125
3367,2.32,1637343735.59375
3368,6.39,1637343735.609375
3369,10.49,1637343735.625
3370,14.42,1637343735.640625
3371,17.94,1637343735.65625
3372,20.88,1637343735.671875
3373,23.17,1637343735.6875
3374,24.78,1637343735.703125
3375,25.78,1637343735.71875
3376,26.3,1637343735.734375
3377,26.5,1637343735.75
3378,26.53,1637343735.765625
3379,26.59,1637343735.78125
3380,26.84,1637343735.796875
3381,27.4,1637343735.8125
3382,28.34,1637343735.828125
3383,29.6,1637343735.84375
3384,30.98,1637343735.859375
3385,32.15,1637343735.875
3386,32.74,1637343735.890625
3387,32.47,1637343735.90625
3388,31.28,1637343735.921875
3389,29.31,1637343735.9375
3390,26.94,1637343735.953125
3391,24.56,1637343735.96875
3392,22.45,1637343735.984375
3393,20.72,1637343736.0
3394,19.23,1637343736.015625
3395,17.78,1637343736.03125
3396,16.15,1637343736.046875
3397,14.27,1637343736.0625
3398,12.2,1637343736.078125
3399,10.06,1637343736.09375
3400,7.96,1637343736.109375
3401,5.89,1637343736.125
3402,3.79,1637343736.140625
3403,1.56,1637343736.15625
3404,-0.83,1637343736.171875
3405,-3.34,1637343736.1875
3406,-5.85,1637343736.203125
3407,-8.27,1637343736.21875
3408,-10.58,1637343736.234375
3409,-12.84,1637343736.25
3410,-15.16,1637343736.265625
3411,-17.57,1637343736.28125
3412,-20.11,1637343736.296875
3413,-22.77,1637343736.3125
3414,-25.56,1637343736.328125
3415,-28.53,1637343736.34375
3416,-31.78,1637343736.359375
3417,-35.31,1637343736.375
3418,-38.93,1637343736.390625
3419,-42.25,1637343736.40625
3420,-44.69,1637343736.421875
3421,-45.69,1637343736.4375
3422,-44.8,1637343736.453125
3423,-41.89,1637343736.46875
3424,-37.22,1637343736.484375
3425,-31.36,1637343736.5
3426,-25.08,1637343736.515625
3427,-19.09,1637343736.53125
3428,-13.9,1637343736.546875
3429,-9.7,1637343736.5625
3430,-6.37,1637343736.578125
3431,-3.58,1637343736.59375
3432,-0.97,1637343736.609375
3433,1.71,1637343736.625
3434,4.61,1637343736.640625
3435,7.66,1637343736.65625
3436,10.73,1637343736.671875
3437,13.63,1637343736.6875
3438,16.2,1637343736.703125
3439,18.3,1637343736.71875
3440,19.86,1637343736.734375
3441,20.83,1637343736.75
3442,21.23,1637343736.765625
3443,21.14,1637343736.78125
3444,20.74,1637343736.796875
3445,20.24,1637343736.8125
3446,19.89,1637343736.828125
3447,19.89,1637343736.84375
3448,20.34,1637343736.859375
3449,21.18,1637343736.875
3450,22.27,1637343736.890625
3451,23.44,1637343736.90625
3452,24.55,1637343736.921875
3453,25.59,1637343736.9375
3454,26.64,1637343736.953125
3455,27.8,1637343736.96875
3456,29.11,1637343736.984375
3457,30.5,1637343737.0
3458,31.71,1637343737.015625
3459,32.47,1637343737.03125
3460,32.48,1637343737.046875
3461,31.59,1637343737.0625
3462,29.86,1637343737.078125
3463,27.51,1637343737.09375
3464,24.82,1637343737.109375
3465,21.96,1637343737.125
3466,19.0,1637343737.140625
3467,15.85,1637343737.15625
3468,12.39,1637343737.171875
3469,8.57,1637343737.1875
3470,4.53,1637343737.203125
3471,0.53,1637343737.21875
3472,-3.11,1637343737.234375
3473,-6.2,1637343737.25
3474,-8.74,1637343737.265625
3475,-10.95,1637343737.28125
3476,-13.1,1637343737.296875
3477,-15.47,1637343737.3125
3478,-18.22,1637343737.328125
3479,-21.45,1637343737.34375
3480,-25.17,1637343737.359375
3481,-29.47,1637343737.375
3482,-34.33,1637343737.390625
3483,-39.55,1637343737.40625
3484,-44.68,1637343737.421875
3485,-48.98,1637343737.4375
3486,-51.68,1637343737.453125
3487,-52.26,1637343737.46875
3488,-50.72,1637343737.484375
3489,-47.62,1637343737.5
3490,-43.88,1637343737.515625
3491,-40.31,1637343737.53125
3492,-37.37,1637343737.546875
3493,-35.03,1637343737.5625
3494,-32.91,1637343737.578125
3495,-30.59,1637343737.59375
3496,-27.8,1637343737.609375
3497,-24.51,1637343737.625
3498,-20.81,1637343737.640625
3499,-16.79,1637343737.65625
3500,-12.49,1637343737.671875
3501,-7.92,1637343737.6875
3502,-3.18,1637343737.703125
3503,1.49,1637343737.71875
3504,5.83,1637343737.734375
3505,9.64,1637343737.75
3506,12.91,1637343737.765625
3507,15.78,1637343737.78125
3508,18.44,1637343737.796875
3509,20.98,1637343737.8125
3510,23.33,1637343737.828125
3511,25.36,1637343737.84375
3512,27.01,1637343737.859375
3513,28.33,1637343737.875
3514,29.51,1637343737.890625
3515,30.69,1637343737.90625
3516,31.93,1637343737.921875
3517,33.18,1637343737.9375
3518,34.28,1637343737.953125
3519,35.13,1637343737.96875
3520,35.69,1637343737.984375
3521,36.09,1637343738.0
3522,36.4,1637343738.015625
3523,36.67,1637343738.03125
3524,36.85,1637343738.046875
3525,36.86,1637343738.0625
3526,36.6,1637343738.078125
3527,36.03,1637343738.09375
3528,35.13,1637343738.109375
3529,33.92,1637343738.125
3530,32.42,1637343738.140625
3531,30.67,1637343738.15625
3532,28.76,1637343738.171875
3533,26.81,1637343738.1875
3534,24.96,1637343738.203125
3535,23.26,1637343738.21875
3536,21.68,1637343738.234375
3537,20.12,1637343738.25
3538,18.41,1637343738.265625
3539,16.42,1637343738.28125
3540,14.03,1637343738.296875
3541,11.19,1637343738.3125
3542,7.86,1637343738.328125
3543,4.09,1637343738.34375
3544,0.0,1637343738.359375
3545,-4.19,1637343738.375
3546,-8.22,1637343738.390625
3547,-11.88,1637343738.40625
3548,-15.12,1637343738.421875
3549,-18.12,1637343738.4375
3550,-21.26,1637343738.453125
3551,-24.98,1637343738.46875
3552,-29.64,1637343738.484375
3553,-35.23,1637343738.5
3554,-41.3,1637343738.515625
3555,-46.96,1637343738.53125
3556,-51.19,1637343738.546875
3557,-53.16,1637343738.5625
3558,-52.66,1637343738.578125
3559,-50.17,1637343738.59375
3560,-46.69,1637343738.609375
3561,-43.32,1637343738.625
3562,-40.75,1637343738.640625
3563,-39.05,1637343738.65625
3564,-37.77,1637343738.671875
3565,-36.32,1637343738.6875
3566,-34.38,1637343738.703125
3567,-32.14,1637343738.71875
3568,-30.15,1637343738.734375
3569,-29.02,1637343738.75
3570,-28.99,1637343738.765625
3571,-29.83,1637343738.78125
3572,-30.89,1637343738.796875
3573,-31.41,1637343738.8125
3574,-30.92,1637343738.828125
3575,-29.47,1637343738.84375
3576,-27.65,1637343738.859375
3577,-26.38,1637343738.875
3578,-26.59,1637343738.890625
3579,-28.77,1637343738.90625
3580,-32.81,1637343738.921875
3581,-37.99,1637343738.9375
3582,-43.25,1637343738.953125
3583,-47.64,1637343738.96875
3584,-50.71,1637343738.984375
3585,-52.72,1637343739.0
3586,-54.69,1637343739.015625
3587,-58.23,1637343739.03125
3588,-65.3,1637343739.046875
3589,-77.66,1637343739.0625
3590,-96.23,1637343739.078125
3591,-120.28,1637343739.09375
3592,-147.05,1637343739.109375
3593,-172.05,1637343739.125
3594,-190.24,1637343739.140625
3595,-197.83,1637343739.15625
3596,-193.74,1637343739.171875
3597,-180.1,1637343739.1875
3598,-161.66,1637343739.203125
3599,-143.94,1637343739.21875
3600,-131.47,1637343739.234375
3601,-126.76,1637343739.25
3602,-130.14,1637343739.265625
3603,-140.56,1637343739.28125
3604,-156.47,1637343739.296875
3605,-176.32,1637343739.3125
3606,-198.58,1637343739.328125
3607,-221.55,1637343739.34375
3608,-243.22,1637343739.359375
3609,-261.58,1637343739.375
3610,-275.22,1637343739.390625
3611,-283.7,1637343739.40625
3612,-287.64,1637343739.421875
3613,-288.42,1637343739.4375
3614,-287.59,1637343739.453125
3615,-286.26,1637343739.46875
3616,-284.84,1637343739.484375
3617,-283.09,1637343739.5
3618,-280.41,1637343739.515625
3619,-276.26,1637343739.53125
3620,-270.39,1637343739.546875
3621,-262.92,1637343739.5625
3622,-254.16,1637343739.578125
3623,-244.39,1637343739.59375
3624,-233.71,1637343739.609375
3625,-222.07,1637343739.625
3626,-209.37,1637343739.640625
3627,-195.7,1637343739.65625
3628,-181.34,1637343739.671875
3629,-166.76,1637343739.6875
3630,-152.36,1637343739.703125
3631,-138.3,1637343739.71875
3632,-124.43,1637343739.734375
3633,-110.35,1637343739.75
3634,-95.71,1637343739.765625
3635,-80.41,1637343739.78125
3636,-64.71,1637343739.796875
3637,-49.12,1637343739.8125
3638,-34.08,1637343739.828125
3639,-19.67,1637343739.84375
3640,-5.46,1637343739.859375
3641,9.32,1637343739.875
3642,25.41,1637343739.890625
3643,43.13,1637343739.90625
3644,62.11,1637343739.921875
3645,81.5,1637343739.9375
3646,100.38,1637343739.953125
3647,118.26,1637343739.96875
3648,135.5,1637343739.984375
3649,153.22,1637343740.0
3650,172.99,1637343740.015625
3651,196.47,1637343740.03125
3652,225.13,1637343740.046875
3653,260.19,1637343740.0625
3654,302.28,1637343740.078125
3655,350.79,1637343740.09375
3656,403.14,1637343740.109375
3657,454.55,1637343740.125
3658,498.89,1637343740.140625
3659,530.38,1637343740.15625
3660,545.65,1637343740.171875
3661,544.89,1637343740.1875
3662,531.48,1637343740.203125
3663,510.36,1637343740.21875
3664,485.9,1637343740.234375
3665,460.62,1637343740.25
3666,435.1,1637343740.265625
3667,409.01,1637343740.28125
3668,382.17,1637343740.296875
3669,355.07,1637343740.3125
3670,328.53,1637343740.328125
3671,302.81,1637343740.34375
3672,277.26,1637343740.359375
3673,250.56,1637343740.375
3674,221.55,1637343740.390625
3675,190.09,1637343740.40625
3676,157.39,1637343740.421875
3677,125.75,1637343740.4375
3678,97.85,1637343740.453125
3679,75.84,1637343740.46875
3680,60.69,1637343740.484375
3681,52.06,1637343740.5
3682,48.41,1637343740.515625
3683,47.55,1637343740.53125
3684,47.15,1637343740.546875
3685,45.05,1637343740.5625
3686,39.46,1637343740.578125
3687,29.11,1637343740.59375
3688,13.42,1637343740.609375
3689,-7.37,1637343740.625
3690,-31.83,1637343740.640625
3691,-57.44,1637343740.65625
3692,-80.79,1637343740.671875
3693,-97.94,1637343740.6875
3694,-104.86,1637343740.703125
3695,-98.0,1637343740.71875
3696,-75.24,1637343740.734375
3697,-37.02,1637343740.75
3698,12.67,1637343740.765625
3699,66.5,1637343740.78125
3700,115.29,1637343740.796875
3701,150.72,1637343740.8125
3702,168.04,1637343740.828125
3703,167.27,1637343740.84375
3704,152.34,1637343740.859375
3705,128.46,1637343740.875
3706,99.6,1637343740.890625
3707,67.34,1637343740.90625
3708,31.98,1637343740.921875
3709,-5.44,1637343740.9375
3710,-41.42,1637343740.953125
3711,-70.34,1637343740.96875
3712,-86.63,1637343740.984375
3713,-87.46,1637343741.0
3714,-74.38,1637343741.015625
3715,-52.81,1637343741.03125
3716,-29.71,1637343741.046875
3717,-10.77,1637343741.0625
3718,1.46,1637343741.078125
3719,7.79,1637343741.09375
3720,11.27,1637343741.109375
3721,15.15,1637343741.125
3722,21.4,1637343741.140625
3723,30.04,1637343741.15625
3724,39.4,1637343741.171875
3725,47.08,1637343741.1875
3726,51.0,1637343741.203125
3727,50.24,1637343741.21875
3728,45.39,1637343741.234375
3729,38.43,1637343741.25
3730,32.09,1637343741.265625
3731,29.09,1637343741.28125
3732,31.25,1637343741.296875
3733,38.7,1637343741.3125
3734,49.62,1637343741.328125
3735,60.51,1637343741.34375
3736,67.23,1637343741.359375
3737,66.3,1637343741.375
3738,56.02,1637343741.390625
3739,37.01,1637343741.40625
3740,11.89,1637343741.421875
3741,-15.56,1637343741.4375
3742,-41.5,1637343741.453125
3743,-62.8,1637343741.46875
3744,-77.32,1637343741.484375
3745,-83.92,1637343741.5
3746,-82.48,1637343741.515625
3747,-73.92,1637343741.53125
3748,-60.32,1637343741.546875
3749,-44.69,1637343741.5625
3750,-30.34,1637343741.578125
3751,-20.05,1637343741.59375
3752,-15.17,1637343741.609375
3753,-15.23,1637343741.625
3754,-18.33,1637343741.640625
3755,-21.85,1637343741.65625
3756,-23.34,1637343741.671875
3757,-21.35,1637343741.6875
3758,-15.74,1637343741.703125
3759,-7.49,1637343741.71875
3760,1.73,1637343741.734375
3761,10.2,1637343741.75
3762,16.74,1637343741.765625
3763,20.89,1637343741.78125
3764,22.89,1637343741.796875
3765,23.4,1637343741.8125
3766,23.13,1637343741.828125
3767,22.61,1637343741.84375
3768,22.11,1637343741.859375
3769,21.7,1637343741.875
3770,21.39,1637343741.890625
3771,21.17,1637343741.90625
3772,21.04,1637343741.921875
3773,20.98,1637343741.9375
3774,20.97,1637343741.953125
3775,21.01,1637343741.96875
3776,21.12,1637343741.984375
3777,21.39,1637343742.0
3778,21.83,1637343742.015625
3779,22.36,1637343742.03125
3780,22.8,1637343742.046875
3781,22.85,1637343742.0625
3782,22.26,1637343742.078125
3783,20.82,1637343742.09375
3784,18.42,1637343742.109375
3785,15.03,1637343742.125
3786,10.69,1637343742.140625
3787,5.55,1637343742.15625
3788,-0.15,1637343742.171875
3789,-6.11,1637343742.1875
3790,-12.07,1637343742.203125
3791,-17.95,1637343742.21875
3792,-23.92,1637343742.234375
3793,-30.4,1637343742.25
3794,-37.77,1637343742.265625
3795,-46.11,1637343742.28125
3796,-54.89,1637343742.296875
3797,-62.96,1637343742.3125
3798,-68.68,1637343742.328125
3799,-70.56,1637343742.34375
3800,-67.71,1637343742.359375
3801,-60.27,1637343742.375
3802,-49.37,1637343742.390625
3803,-36.68,1637343742.40625
3804,-23.87,1637343742.421875
3805,-12.09,1637343742.4375
3806,-1.81,1637343742.453125
3807,6.97,1637343742.46875
3808,14.43,1637343742.484375
3809,20.68,1637343742.5
3810,25.7,1637343742.515625
3811,29.45,1637343742.53125
3812,32.06,1637343742.546875
3813,33.75,1637343742.5625
3814,34.83,1637343742.578125
3815,35.48,1637343742.59375
3816,35.75,1637343742.609375
3817,35.58,1637343742.625
3818,34.9,1637343742.640625
3819,33.68,1637343742.65625
3820,32.0,1637343742.671875
3821,29.98,1637343742.6875
3822,27.78,1637343742.703125
3823,25.62,1637343742.71875
3824,23.79,1637343742.734375
3825,22.65,1637343742.75
3826,22.47,1637343742.765625
3827,23.41,1637343742.78125
3828,25.33,1637343742.796875
3829,27.83,1637343742.8125
3830,30.38,1637343742.828125
3831,32.34,1637343742.84375
3832,33.25,1637343742.859375
3833,32.84,1637343742.875
3834,31.1,1637343742.890625
3835,28.24,1637343742.90625
3836,24.52,1637343742.921875
3837,20.24,1637343742.9375
3838,15.53,1637343742.953125
3839,10.45,1637343742.96875
3840,4.98,1637343742.984375
3841,-0.84,1637343743.0
3842,-6.87,1637343743.015625
3843,-12.89,1637343743.03125
3844,-18.66,1637343743.046875
3845,-24.05,1637343743.0625
3846,-29.0,1637343743.078125
3847,-33.61,1637343743.09375
3848,-38.03,1637343743.109375
3849,-42.41,1637343743.125
3850,-46.97,1637343743.140625
3851,-51.89,1637343743.15625
3852,-57.24,1637343743.171875
3853,-62.83,1637343743.1875
3854,-68.08,1637343743.203125
3855,-72.0,1637343743.21875
3856,-73.44,1637343743.234375
3857,-71.46,1637343743.25
3858,-65.68,1637343743.265625
3859,-56.54,1637343743.28125
3860,-45.21,1637343743.296875
3861,-33.27,1637343743.3125
3862,-22.17,1637343743.328125
3863,-12.92,1637343743.34375
3864,-5.82,1637343743.359375
3865,-0.6,1637343743.375
3866,3.36,1637343743.390625
3867,6.72,1637343743.40625
3868,9.98,1637343743.421875
3869,13.4,1637343743.4375
3870,16.99,1637343743.453125
3871,20.71,1637343743.46875
3872,24.44,1637343743.484375
3873,28.07,1637343743.5
3874,31.47,1637343743.515625
3875,34.42,1637343743.53125
3876,36.74,1637343743.546875
3877,38.27,1637343743.5625
3878,39.05,1637343743.578125
3879,39.31,1637343743.59375
3880,39.39,1637343743.609375
3881,39.57,1637343743.625
3882,39.98,1637343743.640625
3883,40.53,1637343743.65625
3884,40.96,1637343743.671875
3885,41.03,1637343743.6875
3886,40.62,1637343743.703125
3887,39.77,1637343743.71875
3888,38.61,1637343743.734375
3889,37.24,1637343743.75
3890,35.69,1637343743.765625
3891,33.99,1637343743.78125
3892,32.19,1637343743.796875
3893,30.4,1637343743.8125
3894,28.73,1637343743.828125
3895,27.28,1637343743.84375
3896,26.01,1637343743.859375
3897,24.81,1637343743.875
3898,23.53,1637343743.890625
3899,22.1,1637343743.90625
3900,20.5,1637343743.921875
3901,18.76,1637343743.9375
3902,16.89,1637343743.953125
3903,14.83,1637343743.96875
3904,12.52,1637343743.984375
3905,9.97,1637343744.0
3906,7.3,1637343744.015625
3907,4.67,1637343744.03125
3908,2.2,1637343744.046875
3909,-0.16,1637343744.0625
3910,-2.63,1637343744.078125
3911,-5.53,1637343744.09375
3912,-9.06,1637343744.109375
3913,-13.17,1637343744.125
3914,-17.59,1637343744.140625
3915,-21.92,1637343744.15625
3916,-25.83,1637343744.171875
3917,-29.26,1637343744.1875
3918,-32.35,1637343744.203125
3919,-35.45,1637343744.21875
3920,-38.9,1637343744.234375
3921,-42.98,1637343744.25
3922,-47.77,1637343744.265625
3923,-53.13,1637343744.28125
3924,-58.56,1637343744.296875
3925,-63.2,1637343744.3125
3926,-66.0,1637343744.328125
3927,-65.92,1637343744.34375
3928,-62.35,1637343744.359375
3929,-55.39,1637343744.375
3930,-45.87,1637343744.390625
3931,-35.2,1637343744.40625
3932,-24.85,1637343744.421875
3933,-15.92,1637343744.4375
3934,-8.89,1637343744.453125
3935,-3.59,1637343744.46875
3936,0.48,1637343744.484375
3937,3.94,1637343744.5
3938,7.28,1637343744.515625
3939,10.77,1637343744.53125
3940,14.54,1637343744.546875
3941,18.58,1637343744.5625
3942,22.78,1637343744.578125
3943,26.92,1637343744.59375
3944,30.69,1637343744.609375
3945,33.76,1637343744.625
3946,35.86,1637343744.640625
3947,36.91,1637343744.65625
3948,37.01,1637343744.671875
3949,36.45,1637343744.6875
3950,35.64,1637343744.703125
3951,34.95,1637343744.71875
3952,34.64,1637343744.734375
3953,34.69,1637343744.75
3954,34.96,1637343744.765625
3955,35.15,1637343744.78125
3956,34.97,1637343744.796875
3957,34.29,1637343744.8125
3958,33.12,1637343744.828125
3959,31.63,1637343744.84375
3960,30.07,1637343744.859375
3961,28.58,1637343744.875
3962,27.21,1637343744.890625
3963,25.84,1637343744.90625
3964,24.28,1637343744.921875
3965,22.33,1637343744.9375
3966,19.86,1637343744.953125
3967,16.9,1637343744.96875
3968,13.59,1637343744.984375
3969,10.17,1637343745.0
3970,6.91,1637343745.015625
3971,4.03,1637343745.03125
3972,1.67,1637343745.046875
3973,-0.19,1637343745.0625
3974,-1.67,1637343745.078125
3975,-3.04,1637343745.09375
3976,-4.63,1637343745.109375
3977,-6.76,1637343745.125
3978,-9.69,1637343745.140625
3979,-13.47,1637343745.15625
3980,-17.96,1637343745.171875
3981,-22.81,1637343745.1875
3982,-27.61,1637343745.203125
3983,-32.04,1637343745.21875
3984,-35.95,1637343745.234375
3985,-39.47,1637343745.25
3986,-42.91,1637343745.265625
3987,-46.68,1637343745.28125
3988,-51.04,1637343745.296875
3989,-56.08,1637343745.3125
3990,-61.54,1637343745.328125
3991,-66.76,1637343745.34375
3992,-70.8,1637343745.359375
3993,-72.53,1637343745.375
3994,-71.01,1637343745.390625
3995,-65.81,1637343745.40625
3996,-57.26,1637343745.421875
3997,-46.46,1637343745.4375
3998,-34.97,1637343745.453125
3999,-24.34,1637343745.46875
4000,-15.63,1637343745.484375
4001,-9.19,1637343745.5
4002,-4.68,1637343745.515625
4003,-1.35,1637343745.53125
4004,1.56,1637343745.546875
4005,4.65,1637343745.5625
4006,8.23,1637343745.578125
4007,12.34,1637343745.59375
4008,16.83,1637343745.609375
4009,21.44,1637343745.625
4010,25.89,1637343745.640625
4011,29.88,1637343745.65625
4012,33.15,1637343745.671875
4013,35.58,1637343745.6875
4014,37.3,1637343745.703125
4015,38.59,1637343745.71875
4016,39.87,1637343745.734375
4017,41.47,1637343745.75
4018,43.54,1637343745.765625
4019,45.89,1637343745.78125
4020,48.11,1637343745.796875
4021,49.74,1637343745.8125
4022,50.53,1637343745.828125
4023,50.51,1637343745.84375
4024,49.96,1637343745.859375
4025,49.31,1637343745.875
4026,48.82,1637343745.890625
4027,48.61,1637343745.90625
4028,48.63,1637343745.921875
4029,48.67,1637343745.9375
4030,48.64,1637343745.953125
4031,48.46,1637343745.96875
4032,48.16,1637343745.984375
4033,47.82,1637343746.0
4034,47.57,1637343746.015625
4035,47.52,1637343746.03125
4036,47.69,1637343746.046875
4037,47.92,1637343746.0625
4038,47.72,1637343746.078125
4039,46.43,1637343746.09375
4040,43.4,1637343746.109375
4041,38.16,1637343746.125
4042,30.71,1637343746.140625
4043,21.44,1637343746.15625
4044,10.98,1637343746.171875
4045,-0.01,1637343746.1875
4046,-10.96,1637343746.203125
4047,-21.49,1637343746.21875
4048,-31.27,1637343746.234375
4049,-40.01,1637343746.25
4050,-47.47,1637343746.265625
4051,-53.54,1637343746.28125
4052,-58.34,1637343746.296875
4053,-62.2,1637343746.3125
4054,-65.58,1637343746.328125
4055,-69.02,1637343746.34375
4056,-72.92,1637343746.359375
4057,-77.5,1637343746.375
4058,-82.69,1637343746.390625
4059,-88.09,1637343746.40625
4060,-92.89,1637343746.421875
4061,-96.01,1637343746.4375
4062,-96.38,1637343746.453125
4063,-93.26,1637343746.46875
4064,-86.58,1637343746.484375
4065,-77.04,1637343746.5
4066,-65.98,1637343746.515625
4067,-54.92,1637343746.53125
4068,-45.15,1637343746.546875
4069,-37.33,1637343746.5625
4070,-31.48,1637343746.578125
4071,-27.1,1637343746.59375
4072,-23.47,1637343746.609375
4073,-19.94,1637343746.625
4074,-16.04,1637343746.640625
4075,-11.53,1637343746.65625
4076,-6.36,1637343746.671875
4077,-0.66,1637343746.6875
4078,5.32,1637343746.703125
4079,11.24,1637343746.71875
4080,16.7,1637343746.734375
4081,21.32,1637343746.75
4082,24.88,1637343746.765625
4083,27.37,1637343746.78125
4084,29.01,1637343746.796875
4085,30.19,1637343746.8125
4086,31.3,1637343746.828125
4087,32.62,1637343746.84375
4088,34.17,1637343746.859375
4089,35.72,1637343746.875
4090,36.89,1637343746.890625
4091,37.28,1637343746.90625
4092,36.64,1637343746.921875
4093,34.96,1637343746.9375
4094,32.43,1637343746.953125
4095,29.39,1637343746.96875
4096,26.2,1637343746.984375
4097,23.11,1637343747.0
4098,20.24,1637343747.015625
4099,17.63,1637343747.03125
4100,15.19,1637343747.046875
4101,12.88,1637343747.0625
4102,10.65,1637343747.078125
4103,8.52,1637343747.09375
4104,6.52,1637343747.109375
4105,4.63,1637343747.125
4106,2.77,1637343747.140625
4107,0.79,1637343747.15625
4108,-1.46,1637343747.171875
4109,-4.02,1637343747.1875
4110,-6.8,1637343747.203125
4111,-9.56,1637343747.21875
4112,-12.06,1637343747.234375
4113,-14.18,1637343747.25
4114,-16.03,1637343747.265625
4115,-17.86,1637343747.28125
4116,-19.96,1637343747.296875
4117,-22.51,1637343747.3125
4118,-25.43,1637343747.328125
4119,-28.52,1637343747.34375
4120,-31.53,1637343747.359375
4121,-34.33,1637343747.375
4122,-36.97,1637343747.390625
4123,-39.7,1637343747.40625
4124,-42.85,1637343747.421875
4125,-46.82,1637343747.4375
4126,-51.9,1637343747.453125
4127,-58.14,1637343747.46875
4128,-65.19,1637343747.484375
4129,-72.18,1637343747.5
4130,-77.82,1637343747.515625
4131,-80.66,1637343747.53125
4132,-79.6,1637343747.546875
4133,-74.3,1637343747.5625
4134,-65.33,1637343747.578125
4135,-54.08,1637343747.59375
4136,-42.28,1637343747.609375
4137,-31.47,1637343747.625
4138,-22.65,1637343747.640625
4139,-16.09,1637343747.65625
4140,-11.52,1637343747.671875
4141,-8.38,1637343747.6875
4142,-6.05,1637343747.703125
4143,-3.98,1637343747.71875
4144,-1.71,1637343747.734375
4145,1.14,1637343747.75
4146,4.81,1637343747.765625
4147,9.29,1637343747.78125
4148,14.3,1637343747.796875
4149,19.36,1637343747.8125
4150,23.92,1637343747.828125
4151,27.62,1637343747.84375
4152,30.37,1637343747.859375
4153,32.38,1637343747.875
4154,34.0,1637343747.890625
4155,35.52,1637343747.90625
4156,37.1,1637343747.921875
4157,38.74,1637343747.9375
4158,40.31,1637343747.953125
4159,41.61,1637343747.96875
4160,42.44,1637343747.984375
4161,42.56,1637343748.0
4162,41.78,1637343748.015625
4163,40.05,1637343748.03125
4164,37.48,1637343748.046875
4165,34.41,1637343748.0625
4166,31.26,1637343748.078125
4167,28.35,1637343748.09375
4168,25.82,1637343748.109375
4169,23.55,1637343748.125
4170,21.31,1637343748.140625
4171,18.8,1637343748.15625
4172,15.86,1637343748.171875
4173,12.53,1637343748.1875
4174,8.94,1637343748.203125
4175,5.34,1637343748.21875
4176,1.99,1637343748.234375
4177,-0.93,1637343748.25
4178,-3.44,1637343748.265625
4179,-5.69,1637343748.28125
4180,-8.04,1637343748.296875
4181,-10.85,1637343748.3125
4182,-14.4,1637343748.328125
4183,-18.71,1637343748.34375
4184,-23.61,1637343748.359375
4185,-28.74,1637343748.375
4186,-33.71,1637343748.390625
4187,-38.26,1637343748.40625
4188,-42.3,1637343748.421875
4189,-45.98,1637343748.4375
4190,-49.65,1637343748.453125
4191,-53.86,1637343748.46875
4192,-59.12,1637343748.484375
4193,-65.62,1637343748.5
4194,-72.97,1637343748.515625
4195,-80.08,1637343748.53125
4196,-85.33,1637343748.546875
4197,-87.1,1637343748.5625
4198,-84.39,1637343748.578125
4199,-77.29,1637343748.59375
4200,-67.01,1637343748.609375
4201,-55.4,1637343748.625
4202,-44.27,1637343748.640625
4203,-34.83,1637343748.65625
4204,-27.46,1637343748.671875
4205,-21.8,1637343748.6875
4206,-17.1,1637343748.703125
4207,-12.6,1637343748.71875
4208,-7.71,1637343748.734375
4209,-2.09,1637343748.75
4210,4.33,1637343748.765625
4211,11.38,1637343748.78125
4212,18.66,1637343748.796875
4213,25.56,1637343748.8125
4214,31.44,1637343748.828125
4215,35.82,1637343748.84375
4216,38.56,1637343748.859375
4217,39.88,1637343748.875
4218,40.26,1637343748.890625
4219,40.29,1637343748.90625
4220,40.42,1637343748.921875
4221,40.89,1637343748.9375
4222,41.71,1637343748.953125
4223,42.71,1637343748.96875
4224,43.61,1637343748.984375
4225,44.17,1637343749.0
4226,44.17,1637343749.015625
4227,43.51,1637343749.03125
4228,42.18,1637343749.046875
4229,40.3,1637343749.0625
4230,38.07,1637343749.078125
4231,35.74,1637343749.09375
4232,33.51,1637343749.109375
4233,31.52,1637343749.125
4234,29.79,1637343749.140625
4235,28.2,1637343749.15625
4236,26.65,1637343749.171875
4237,25.02,1637343749.1875
4238,23.26,1637343749.203125
4239,21.35,1637343749.21875
4240,19.31,1637343749.234375
4241,17.12,1637343749.25
4242,14.71,1637343749.265625
4243,12.06,1637343749.28125
4244,9.18,1637343749.296875
4245,6.17,1637343749.3125
4246,3.18,1637343749.328125
4247,0.32,1637343749.34375
4248,-2.36,1637343749.359375
4249,-4.93,1637343749.375
4250,-7.56,1637343749.390625
4251,-10.47,1637343749.40625
4252,-13.81,1637343749.421875
4253,-17.57,1637343749.4375
4254,-21.63,1637343749.453125
4255,-25.78,1637343749.46875
4256,-29.88,1637343749.484375
4257,-33.96,1637343749.5
4258,-38.2,1637343749.515625
4259,-42.93,1637343749.53125
4260,-48.51,1637343749.546875
4261,-55.2,1637343749.5625
4262,-62.99,1637343749.578125
4263,-71.5,1637343749.59375
4264,-79.83,1637343749.609375
4265,-86.68,1637343749.625
4266,-90.59,1637343749.640625
4267,-90.32,1637343749.65625
4268,-85.39,1637343749.671875
4269,-76.19,1637343749.6875
4270,-64.02,1637343749.703125
4271,-50.65,1637343749.71875
4272,-37.77,1637343749.734375
4273,-26.57,1637343749.75
4274,-17.51,1637343749.765625
4275,-10.38,1637343749.78125
4276,-4.61,1637343749.796875
4277,0.48,1637343749.8125
4278,5.4,1637343749.828125
4279,10.47,1637343749.84375
4280,15.78,1637343749.859375
4281,21.27,1637343749.875
4282,26.75,1637343749.890625
4283,31.97,1637343749.90625
4284,36.64,1637343749.921875
4285,40.44,1637343749.9375
4286,43.15,1637343749.953125
