,BVP,timestamp
1,-0.0,1637342622.0
2,-0.0,1637342622.015625
3,-0.0,1637342622.03125
4,-0.0,1637342622.046875
5,-0.0,1637342622.0625
6,-0.0,1637342622.078125
7,-0.0,1637342622.09375
8,-0.0,1637342622.109375
9,-0.0,1637342622.125
10,-0.0,1637342622.140625
11,0.0,1637342622.15625
12,0.01,1637342622.171875
13,0.01,1637342622.1875
14,-0.0,1637342622.203125
15,-0.03,1637342622.21875
16,-0.05,1637342622.234375
17,-0.05,1637342622.25
18,0.0,1637342622.265625
19,0.13,1637342622.28125
20,0.36,1637342622.296875
21,0.66,1637342622.3125
22,1.01,1637342622.328125
23,1.37,1637342622.34375
24,1.72,1637342622.359375
25,2.06,1637342622.375
26,2.4,1637342622.390625
27,2.79,1637342622.40625
28,3.24,1637342622.421875
29,3.8,1637342622.4375
30,4.42,1637342622.453125
31,5.06,1637342622.46875
32,5.66,1637342622.484375
33,6.2,1637342622.5
34,6.68,1637342622.515625
35,7.15,1637342622.53125
36,7.68,1637342622.546875
37,8.31,1637342622.5625
38,9.14,1637342622.578125
39,10.09,1637342622.59375
40,11.04,1637342622.609375
41,11.88,1637342622.625
42,12.56,1637342622.640625
43,13.14,1637342622.65625
44,13.76,1637342622.671875
45,14.65,1637342622.6875
46,15.96,1637342622.703125
47,17.91,1637342622.71875
48,20.32,1637342622.734375
49,22.9,1637342622.75
50,25.38,1637342622.765625
51,27.58,1637342622.78125
52,29.57,1637342622.796875
53,31.68,1637342622.8125
54,34.32,1637342622.828125
55,37.81,1637342622.84375
56,42.54,1637342622.859375
57,48.15,1637342622.875
58,54.1,1637342622.890625
59,59.83,1637342622.90625
60,64.97,1637342622.921875
61,69.58,1637342622.9375
62,74.14,1637342622.953125
63,79.34,1637342622.96875
64,85.71,1637342622.984375
65,93.76,1637342623.0
66,103.0,1637342623.015625
67,112.62,1637342623.03125
68,121.73,1637342623.046875
69,129.77,1637342623.0625
70,136.75,1637342623.078125
71,143.3,1637342623.09375
72,150.75,1637342623.109375
73,157.77,1637342623.125
74,166.64,1637342623.140625
75,177.95,1637342623.15625
76,191.79,1637342623.171875
77,206.97,1637342623.1875
78,220.57,1637342623.203125
79,228.25,1637342623.21875
80,225.36,1637342623.234375
81,208.53,1637342623.25
82,176.87,1637342623.265625
83,132.76,1637342623.28125
84,80.05,1637342623.296875
85,23.07,1637342623.3125
86,-34.94,1637342623.328125
87,-92.44,1637342623.34375
88,-149.16,1637342623.359375
89,-205.23,1637342623.375
90,-260.37,1637342623.390625
91,-313.74,1637342623.40625
92,-363.87,1637342623.421875
93,-409.83,1637342623.4375
94,-450.91,1637342623.453125
95,-486.5,1637342623.46875
96,-515.74,1637342623.484375
97,-537.23,1637342623.5
98,-549.22,1637342623.515625
99,-549.96,1637342623.53125
100,-538.37,1637342623.546875
101,-514.21,1637342623.5625
102,-478.68,1637342623.578125
103,-433.88,1637342623.59375
104,-382.45,1637342623.609375
105,-327.02,1637342623.625
106,-269.83,1637342623.640625
107,-212.61,1637342623.65625
108,-156.62,1637342623.671875
109,-102.89,1637342623.6875
110,-52.29,1637342623.703125
111,-5.79,1637342623.71875
112,35.73,1637342623.734375
113,71.62,1637342623.75
114,101.59,1637342623.765625
115,125.79,1637342623.78125
116,144.72,1637342623.796875
117,159.1,1637342623.8125
118,169.61,1637342623.828125
119,176.89,1637342623.84375
120,181.33,1637342623.859375
121,183.22,1637342623.875
122,182.78,1637342623.890625
123,180.29,1637342623.90625
124,176.09,1637342623.921875
125,170.59,1637342623.9375
126,164.19,1637342623.953125
127,157.26,1637342623.96875
128,150.02,1637342623.984375
129,142.62,1637342624.0
130,135.14,1637342624.015625
131,127.61,1637342624.03125
132,120.08,1637342624.046875
133,112.61,1637342624.0625
134,105.28,1637342624.078125
135,98.15,1637342624.09375
136,91.28,1637342624.109375
137,84.69,1637342624.125
138,78.41,1637342624.140625
139,72.45,1637342624.15625
140,66.81,1637342624.171875
141,61.51,1637342624.1875
142,56.55,1637342624.203125
143,51.96,1637342624.21875
144,47.73,1637342624.234375
145,43.85,1637342624.25
146,40.34,1637342624.265625
147,37.16,1637342624.28125
148,34.34,1637342624.296875
149,31.85,1637342624.3125
150,29.69,1637342624.328125
151,27.87,1637342624.34375
152,26.37,1637342624.359375
153,25.19,1637342624.375
154,24.32,1637342624.390625
155,23.75,1637342624.40625
156,23.46,1637342624.421875
157,23.43,1637342624.4375
158,23.67,1637342624.453125
159,24.17,1637342624.46875
160,24.89,1637342624.484375
161,25.84,1637342624.5
162,26.98,1637342624.515625
163,28.26,1637342624.53125
164,29.63,1637342624.546875
165,30.98,1637342624.5625
166,32.2,1637342624.578125
167,33.15,1637342624.59375
168,33.66,1637342624.609375
169,33.58,1637342624.625
170,32.76,1637342624.640625
171,31.11,1637342624.65625
172,28.58,1637342624.671875
173,25.19,1637342624.6875
174,21.01,1637342624.703125
175,16.17,1637342624.71875
176,10.89,1637342624.734375
177,5.41,1637342624.75
178,-0.01,1637342624.765625
179,-5.11,1637342624.78125
180,-9.65,1637342624.796875
181,-13.44,1637342624.8125
182,-16.36,1637342624.828125
183,-18.34,1637342624.84375
184,-19.4,1637342624.859375
185,-19.59,1637342624.875
186,-19.05,1637342624.890625
187,-17.93,1637342624.90625
188,-16.38,1637342624.921875
189,-14.59,1637342624.9375
190,-12.71,1637342624.953125
191,-10.88,1637342624.96875
192,-9.16,1637342624.984375
193,-7.61,1637342625.0
194,-6.24,1637342625.015625
195,-5.04,1637342625.03125
196,-3.95,1637342625.046875
197,-2.88,1637342625.0625
198,-1.72,1637342625.078125
199,-0.36,1637342625.09375
200,1.32,1637342625.109375
201,3.41,1637342625.125
202,5.98,1637342625.140625
203,8.97,1637342625.15625
204,12.34,1637342625.171875
205,15.98,1637342625.1875
206,19.81,1637342625.203125
207,23.75,1637342625.21875
208,27.7,1637342625.234375
209,31.63,1637342625.25
210,35.54,1637342625.265625
211,39.47,1637342625.28125
212,43.35,1637342625.296875
213,47.17,1637342625.3125
214,50.96,1637342625.328125
215,54.8,1637342625.34375
216,58.78,1637342625.359375
217,62.97,1637342625.375
218,67.47,1637342625.390625
219,72.35,1637342625.40625
220,77.72,1637342625.421875
221,83.37,1637342625.4375
222,89.16,1637342625.453125
223,95.0,1637342625.46875
224,100.82,1637342625.484375
225,106.59,1637342625.5
226,112.33,1637342625.515625
227,118.08,1637342625.53125
228,123.91,1637342625.546875
229,129.92,1637342625.5625
230,135.79,1637342625.578125
231,141.26,1637342625.59375
232,146.11,1637342625.609375
233,150.1,1637342625.625
234,152.97,1637342625.640625
235,154.37,1637342625.65625
236,153.78,1637342625.671875
237,150.37,1637342625.6875
238,145.69,1637342625.703125
239,140.13,1637342625.71875
240,133.86,1637342625.734375
241,126.92,1637342625.75
242,119.39,1637342625.765625
243,111.37,1637342625.78125
244,103.05,1637342625.796875
245,94.66,1637342625.8125
246,86.38,1637342625.828125
247,78.39,1637342625.84375
248,70.39,1637342625.859375
249,62.12,1637342625.875
250,53.43,1637342625.890625
251,44.28,1637342625.90625
252,34.85,1637342625.921875
253,25.47,1637342625.9375
254,16.51,1637342625.953125
255,8.24,1637342625.96875
256,0.76,1637342625.984375
257,-6.43,1637342626.0
258,-13.85,1637342626.015625
259,-21.96,1637342626.03125
260,-30.87,1637342626.046875
261,-40.29,1637342626.0625
262,-49.58,1637342626.078125
263,-58.0,1637342626.09375
264,-65.11,1637342626.109375
265,-70.99,1637342626.125
266,-76.46,1637342626.140625
267,-82.65,1637342626.15625
268,-90.53,1637342626.171875
269,-100.42,1637342626.1875
270,-111.84,1637342626.203125
271,-123.62,1637342626.21875
272,-134.43,1637342626.234375
273,-143.46,1637342626.25
274,-150.86,1637342626.265625
275,-157.9,1637342626.28125
276,-166.42,1637342626.296875
277,-177.95,1637342626.3125
278,-193.05,1637342626.328125
279,-210.89,1637342626.34375
280,-229.66,1637342626.359375
281,-247.23,1637342626.375
282,-262.16,1637342626.390625
283,-274.22,1637342626.40625
284,-284.48,1637342626.421875
285,-294.9,1637342626.4375
286,-307.79,1637342626.453125
287,-325.33,1637342626.46875
288,-349.04,1637342626.484375
289,-378.9,1637342626.5
290,-412.36,1637342626.515625
291,-443.93,1637342626.53125
292,-465.87,1637342626.546875
293,-470.6,1637342626.5625
294,-453.74,1637342626.578125
295,-416.5,1637342626.59375
296,-365.82,1637342626.609375
297,-312.04,1637342626.625
298,-264.89,1637342626.640625
299,-230.03,1637342626.65625
300,-207.64,1637342626.671875
301,-193.73,1637342626.6875
302,-183.13,1637342626.703125
303,-172.34,1637342626.71875
304,-160.91,1637342626.734375
305,-150.73,1637342626.75
306,-144.24,1637342626.765625
307,-142.77,1637342626.78125
308,-145.93,1637342626.796875
309,-152.13,1637342626.8125
310,-159.41,1637342626.828125
311,-165.98,1637342626.84375
312,-170.27,1637342626.859375
313,-170.42,1637342626.875
314,-164.04,1637342626.890625
315,-148.58,1637342626.90625
316,-122.13,1637342626.921875
317,-84.38,1637342626.9375
318,-37.07,1637342626.953125
319,16.42,1637342626.96875
320,71.99,1637342626.984375
321,125.96,1637342627.0
322,175.7,1637342627.015625
323,219.77,1637342627.03125
324,257.62,1637342627.046875
325,289.32,1637342627.0625
326,315.33,1637342627.078125
327,336.57,1637342627.09375
328,354.24,1637342627.109375
329,369.45,1637342627.125
330,382.86,1637342627.140625
331,394.41,1637342627.15625
332,403.51,1637342627.171875
333,409.47,1637342627.1875
334,411.86,1637342627.203125
335,410.7,1637342627.21875
336,406.24,1637342627.234375
337,398.52,1637342627.25
338,387.26,1637342627.265625
339,372.03,1637342627.28125
340,352.86,1637342627.296875
341,330.77,1637342627.3125
342,307.83,1637342627.328125
343,286.67,1637342627.34375
344,269.65,1637342627.359375
345,257.91,1637342627.375
346,251.15,1637342627.390625
347,247.79,1637342627.40625
348,245.67,1637342627.421875
349,242.59,1637342627.4375
350,236.75,1637342627.453125
351,226.81,1637342627.46875
352,211.9,1637342627.484375
353,191.69,1637342627.5
354,166.47,1637342627.515625
355,137.09,1637342627.53125
356,104.81,1637342627.546875
357,70.86,1637342627.5625
358,36.13,1637342627.578125
359,1.1,1637342627.59375
360,-33.91,1637342627.609375
361,-68.46,1637342627.625
362,-101.71,1637342627.640625
363,-132.65,1637342627.65625
364,-160.43,1637342627.671875
365,-184.85,1637342627.6875
366,-206.48,1637342627.703125
367,-226.45,1637342627.71875
368,-245.85,1637342627.734375
369,-264.97,1637342627.75
370,-282.65,1637342627.765625
371,-296.07,1637342627.78125
372,-301.19,1637342627.796875
373,-293.96,1637342627.8125
374,-271.82,1637342627.828125
375,-235.04,1637342627.84375
376,-187.16,1637342627.859375
377,-134.28,1637342627.875
378,-83.43,1637342627.890625
379,-40.69,1637342627.90625
380,-9.81,1637342627.921875
381,8.07,1637342627.9375
382,13.89,1637342627.953125
383,9.69,1637342627.96875
384,-2.04,1637342627.984375
385,-18.61,1637342628.0
386,-37.04,1637342628.015625
387,-54.06,1637342628.03125
388,-66.53,1637342628.046875
389,-72.07,1637342628.0625
390,-69.87,1637342628.078125
391,-60.86,1637342628.09375
392,-47.41,1637342628.109375
393,-32.51,1637342628.125
394,-18.81,1637342628.140625
395,-7.89,1637342628.15625
396,-0.01,1637342628.171875
397,5.51,1637342628.1875
398,9.81,1637342628.203125
399,13.79,1637342628.21875
400,17.86,1637342628.234375
401,21.96,1637342628.25
402,25.86,1637342628.265625
403,29.51,1637342628.28125
404,33.19,1637342628.296875
405,37.34,1637342628.3125
406,42.18,1637342628.328125
407,47.47,1637342628.34375
408,52.44,1637342628.359375
409,56.17,1637342628.375
410,57.96,1637342628.390625
411,57.69,1637342628.40625
412,55.89,1637342628.421875
413,53.44,1637342628.4375
414,51.2,1637342628.453125
415,49.63,1637342628.46875
416,48.81,1637342628.484375
417,48.51,1637342628.5
418,48.62,1637342628.515625
419,49.41,1637342628.53125
420,51.57,1637342628.546875
421,56.02,1637342628.5625
422,63.45,1637342628.578125
423,73.89,1637342628.59375
424,86.44,1637342628.609375
425,99.46,1637342628.625
426,110.95,1637342628.640625
427,119.23,1637342628.65625
428,123.51,1637342628.671875
429,124.12,1637342628.6875
430,122.42,1637342628.703125
431,120.3,1637342628.71875
432,119.51,1637342628.734375
433,121.19,1637342628.75
434,125.48,1637342628.765625
435,131.64,1637342628.78125
436,138.43,1637342628.796875
437,144.61,1637342628.8125
438,149.32,1637342628.828125
439,152.4,1637342628.84375
440,154.43,1637342628.859375
441,156.48,1637342628.875
442,159.89,1637342628.890625
443,165.66,1637342628.90625
444,173.93,1637342628.921875
445,183.55,1637342628.9375
446,192.08,1637342628.953125
447,196.33,1637342628.96875
448,193.36,1637342628.984375
449,181.46,1637342629.0
450,160.68,1637342629.015625
451,132.65,1637342629.03125
452,99.73,1637342629.046875
453,63.96,1637342629.0625
454,26.51,1637342629.078125
455,-12.5,1637342629.09375
456,-53.48,1637342629.109375
457,-96.82,1637342629.125
458,-142.27,1637342629.140625
459,-188.68,1637342629.15625
460,-233.91,1637342629.171875
461,-275.08,1637342629.1875
462,-309.02,1637342629.203125
463,-333.03,1637342629.21875
464,-345.52,1637342629.234375
465,-346.33,1637342629.25
466,-336.53,1637342629.265625
467,-317.77,1637342629.28125
468,-291.66,1637342629.296875
469,-259.65,1637342629.3125
470,-223.5,1637342629.328125
471,-185.95,1637342629.34375
472,-150.86,1637342629.359375
473,-122.7,1637342629.375
474,-105.01,1637342629.390625
475,-99.06,1637342629.40625
476,-103.2,1637342629.421875
477,-113.49,1637342629.4375
478,-125.29,1637342629.453125
479,-135.06,1637342629.46875
480,-141.42,1637342629.484375
481,-145.13,1637342629.5
482,-148.19,1637342629.515625
483,-152.3,1637342629.53125
484,-157.86,1637342629.546875
485,-163.46,1637342629.5625
486,-165.99,1637342629.578125
487,-161.43,1637342629.59375
488,-145.92,1637342629.609375
489,-116.86,1637342629.625
490,-74.03,1637342629.640625
491,-20.07,1637342629.65625
492,39.62,1637342629.671875
493,97.92,1637342629.6875
494,147.82,1637342629.703125
495,184.22,1637342629.71875
496,205.31,1637342629.734375
497,212.73,1637342629.75
498,210.47,1637342629.765625
499,203.09,1637342629.78125
500,194.0,1637342629.796875
501,184.75,1637342629.8125
502,175.28,1637342629.828125
503,165.13,1637342629.84375
504,154.47,1637342629.859375
505,144.62,1637342629.875
506,137.66,1637342629.890625
507,135.32,1637342629.90625
508,138.2,1637342629.921875
509,145.46,1637342629.9375
510,155.48,1637342629.953125
511,166.68,1637342629.96875
512,178.25,1637342629.984375
513,190.07,1637342630.0
514,202.08,1637342630.015625
515,213.76,1637342630.03125
516,223.82,1637342630.046875
517,230.61,1637342630.0625
518,232.9,1637342630.078125
519,230.42,1637342630.09375
520,223.81,1637342630.109375
521,214.1,1637342630.125
522,201.87,1637342630.140625
523,186.77,1637342630.15625
524,167.67,1637342630.171875
525,143.23,1637342630.1875
526,112.86,1637342630.203125
527,77.12,1637342630.21875
528,37.71,1637342630.234375
529,-3.17,1637342630.25
530,-43.58,1637342630.265625
531,-82.53,1637342630.28125
532,-120.19,1637342630.296875
533,-157.72,1637342630.3125
534,-196.85,1637342630.328125
535,-239.53,1637342630.34375
536,-287.52,1637342630.359375
537,-341.66,1637342630.375
538,-401.08,1637342630.390625
539,-462.45,1637342630.40625
540,-520.22,1637342630.421875
541,-567.93,1637342630.4375
542,-600.33,1637342630.453125
543,-615.34,1637342630.46875
544,-614.53,1637342630.484375
545,-601.95,1637342630.5
546,-581.76,1637342630.515625
547,-556.09,1637342630.53125
548,-524.46,1637342630.546875
549,-485.01,1637342630.5625
550,-436.64,1637342630.578125
551,-380.68,1637342630.59375
552,-320.96,1637342630.609375
553,-262.66,1637342630.625
554,-210.39,1637342630.640625
555,-166.69,1637342630.65625
556,-131.54,1637342630.671875
557,-102.73,1637342630.6875
558,-76.77,1637342630.703125
559,-49.88,1637342630.71875
560,-18.96,1637342630.734375
561,17.54,1637342630.75
562,59.19,1637342630.765625
563,103.49,1637342630.78125
564,146.62,1637342630.796875
565,184.57,1637342630.8125
566,214.22,1637342630.828125
567,234.13,1637342630.84375
568,244.61,1637342630.859375
569,247.29,1637342630.875
570,244.39,1637342630.890625
571,238.11,1637342630.90625
572,230.16,1637342630.921875
573,221.62,1637342630.9375
574,212.94,1637342630.953125
575,204.14,1637342630.96875
576,195.26,1637342630.984375
577,186.48,1637342631.0
578,178.1,1637342631.015625
579,170.17,1637342631.03125
580,162.25,1637342631.046875
581,153.28,1637342631.0625
582,141.77,1637342631.078125
583,126.61,1637342631.09375
584,107.93,1637342631.109375
585,87.58,1637342631.125
586,69.02,1637342631.140625
587,56.49,1637342631.15625
588,53.69,1637342631.171875
589,62.64,1637342631.1875
590,83.1,1637342631.203125
591,112.57,1637342631.21875
592,146.87,1637342631.234375
593,180.89,1637342631.25
594,209.33,1637342631.265625
595,227.3,1637342631.28125
596,231.19,1637342631.296875
597,219.6,1637342631.3125
598,194.15,1637342631.328125
599,159.61,1637342631.34375
600,123.03,1637342631.359375
601,91.68,1637342631.375
602,71.0,1637342631.390625
603,62.89,1637342631.40625
604,65.48,1637342631.421875
605,74.22,1637342631.4375
606,83.84,1637342631.453125
607,90.25,1637342631.46875
608,91.6,1637342631.484375
609,88.24,1637342631.5
610,81.89,1637342631.515625
611,74.73,1637342631.53125
612,68.57,1637342631.546875
613,64.66,1637342631.5625
614,63.72,1637342631.578125
615,65.99,1637342631.59375
616,71.26,1637342631.609375
617,78.82,1637342631.625
618,87.62,1637342631.640625
619,96.41,1637342631.65625
620,104.11,1637342631.671875
621,109.96,1637342631.6875
622,113.61,1637342631.703125
623,115.0,1637342631.71875
624,114.24,1637342631.734375
625,111.59,1637342631.75
626,107.49,1637342631.765625
627,102.32,1637342631.78125
628,96.19,1637342631.796875
629,88.63,1637342631.8125
630,78.51,1637342631.828125
631,64.35,1637342631.84375
632,45.11,1637342631.859375
633,20.62,1637342631.875
634,-8.11,1637342631.890625
635,-39.3,1637342631.90625
636,-70.98,1637342631.921875
637,-101.67,1637342631.9375
638,-130.74,1637342631.953125
639,-158.41,1637342631.96875
640,-185.55,1637342631.984375
641,-213.42,1637342632.0
642,-243.39,1637342632.015625
643,-276.4,1637342632.03125
644,-312.24,1637342632.046875
645,-348.78,1637342632.0625
646,-381.79,1637342632.078125
647,-405.51,1637342632.09375
648,-414.17,1637342632.109375
649,-403.97,1637342632.125
650,-374.65,1637342632.140625
651,-330.23,1637342632.15625
652,-278.19,1637342632.171875
653,-227.71,1637342632.1875
654,-187.18,1637342632.203125
655,-161.96,1637342632.21875
656,-153.0,1637342632.234375
657,-156.82,1637342632.25
658,-166.74,1637342632.265625
659,-175.01,1637342632.28125
660,-175.17,1637342632.296875
661,-163.75,1637342632.3125
662,-140.85,1637342632.328125
663,-109.38,1637342632.34375
664,-73.71,1637342632.359375
665,-38.07,1637342632.375
666,-5.8,1637342632.390625
667,20.87,1637342632.40625
668,40.51,1637342632.421875
669,52.46,1637342632.4375
670,57.01,1637342632.453125
671,55.64,1637342632.46875
672,50.97,1637342632.484375
673,46.19,1637342632.5
674,44.0,1637342632.515625
675,45.74,1637342632.53125
676,51.14,1637342632.546875
677,58.82,1637342632.5625
678,67.19,1637342632.578125
679,75.21,1637342632.59375
680,82.58,1637342632.609375
681,89.31,1637342632.625
682,95.25,1637342632.640625
683,99.56,1637342632.65625
684,100.75,1637342632.671875
685,96.99,1637342632.6875
686,86.7,1637342632.703125
687,69.19,1637342632.71875
688,45.12,1637342632.734375
689,16.36,1637342632.75
690,-14.72,1637342632.765625
691,-46.47,1637342632.78125
692,-78.94,1637342632.796875
693,-113.82,1637342632.8125
694,-153.14,1637342632.828125
695,-197.27,1637342632.84375
696,-243.24,1637342632.859375
697,-284.79,1637342632.875
698,-314.22,1637342632.890625
699,-325.28,1637342632.90625
700,-315.73,1637342632.921875
701,-288.11,1637342632.9375
702,-248.45,1637342632.953125
703,-203.68,1637342632.96875
704,-159.28,1637342632.984375
705,-118.0,1637342633.0
706,-80.3,1637342633.015625
707,-45.54,1637342633.03125
708,-13.13,1637342633.046875
709,17.01,1637342633.0625
710,44.94,1637342633.078125
711,71.76,1637342633.09375
712,100.17,1637342633.109375
713,133.74,1637342633.125
714,174.96,1637342633.140625
715,222.9,1637342633.15625
716,272.21,1637342633.171875
717,314.59,1637342633.1875
718,342.24,1637342633.203125
719,351.65,1637342633.21875
720,345.36,1637342633.234375
721,330.54,1637342633.25
722,314.96,1637342633.265625
723,302.92,1637342633.28125
724,293.26,1637342633.296875
725,280.86,1637342633.3125
726,260.38,1637342633.328125
727,229.89,1637342633.34375
728,192.12,1637342633.359375
729,152.92,1637342633.375
730,118.06,1637342633.390625
731,90.48,1637342633.40625
732,69.7,1637342633.421875
733,53.19,1637342633.4375
734,38.63,1637342633.453125
735,25.39,1637342633.46875
736,14.57,1637342633.484375
737,7.79,1637342633.5
738,5.64,1637342633.515625
739,6.87,1637342633.53125
740,8.68,1637342633.546875
741,8.14,1637342633.5625
742,3.82,1637342633.578125
743,-3.36,1637342633.59375
744,-10.53,1637342633.609375
745,-14.35,1637342633.625
746,-12.94,1637342633.640625
747,-7.12,1637342633.65625
748,-0.22,1637342633.671875
749,3.63,1637342633.6875
750,1.95,1637342633.703125
751,-4.45,1637342633.71875
752,-11.5,1637342633.734375
753,-13.9,1637342633.75
754,-8.01,1637342633.765625
755,6.17,1637342633.78125
756,24.76,1637342633.796875
757,42.12,1637342633.8125
758,53.63,1637342633.828125
759,57.85,1637342633.84375
760,56.62,1637342633.859375
761,53.46,1637342633.875
762,51.25,1637342633.890625
763,50.82,1637342633.90625
764,51.0,1637342633.921875
765,50.07,1637342633.9375
766,47.22,1637342633.953125
767,43.32,1637342633.96875
768,40.52,1637342633.984375
769,40.9,1637342634.0
770,45.32,1637342634.015625
771,52.87,1637342634.03125
772,61.31,1637342634.046875
773,67.94,1637342634.0625
774,70.84,1637342634.078125
775,69.4,1637342634.09375
776,64.42,1637342634.109375
777,57.43,1637342634.125
778,49.7,1637342634.140625
779,41.58,1637342634.15625
780,32.26,1637342634.171875
781,20.21,1637342634.1875
782,4.18,1637342634.203125
783,-16.0,1637342634.21875
784,-38.92,1637342634.234375
785,-62.09,1637342634.25
786,-82.84,1637342634.265625
787,-99.39,1637342634.28125
788,-111.37,1637342634.296875
789,-119.58,1637342634.3125
790,-125.19,1637342634.328125
791,-128.97,1637342634.34375
792,-130.9,1637342634.359375
793,-130.52,1637342634.375
794,-127.6,1637342634.390625
795,-122.71,1637342634.40625
796,-117.18,1637342634.421875
797,-112.54,1637342634.4375
798,-109.64,1637342634.453125
799,-108.23,1637342634.46875
800,-107.07,1637342634.484375
801,-104.71,1637342634.5
802,-100.31,1637342634.515625
803,-94.08,1637342634.53125
804,-87.17,1637342634.546875
805,-80.94,1637342634.5625
806,-76.25,1637342634.578125
807,-72.98,1637342634.59375
808,-70.18,1637342634.609375
809,-66.63,1637342634.625
810,-61.58,1637342634.640625
811,-55.27,1637342634.65625
812,-48.74,1637342634.671875
813,-43.44,1637342634.6875
814,-40.23,1637342634.703125
815,-39.0,1637342634.71875
816,-38.44,1637342634.734375
817,-36.84,1637342634.75
818,-33.05,1637342634.765625
819,-27.35,1637342634.78125
820,-21.49,1637342634.796875
821,-17.88,1637342634.8125
822,-18.28,1637342634.828125
823,-22.74,1637342634.84375
824,-29.43,1637342634.859375
825,-35.36,1637342634.875
826,-37.56,1637342634.890625
827,-34.08,1637342634.90625
828,-24.35,1637342634.921875
829,-8.92,1637342634.9375
830,11.07,1637342634.953125
831,34.03,1637342634.96875
832,57.99,1637342634.984375
833,80.39,1637342635.0
834,98.27,1637342635.015625
835,108.96,1637342635.03125
836,110.93,1637342635.046875
837,104.42,1637342635.0625
838,91.43,1637342635.078125
839,75.01,1637342635.09375
840,58.35,1637342635.109375
841,43.88,1637342635.125
842,32.86,1637342635.140625
843,25.42,1637342635.15625
844,20.88,1637342635.171875
845,18.12,1637342635.1875
846,15.99,1637342635.203125
847,13.52,1637342635.21875
848,10.15,1637342635.234375
849,5.75,1637342635.25
850,0.51,1637342635.265625
851,-5.24,1637342635.28125
852,-11.13,1637342635.296875
853,-16.89,1637342635.3125
854,-22.2,1637342635.328125
855,-26.78,1637342635.34375
856,-30.3,1637342635.359375
857,-32.62,1637342635.375
858,-33.88,1637342635.390625
859,-34.53,1637342635.40625
860,-35.23,1637342635.421875
861,-36.62,1637342635.4375
862,-39.14,1637342635.453125
863,-42.97,1637342635.46875
864,-48.03,1637342635.484375
865,-54.13,1637342635.5
866,-60.99,1637342635.515625
867,-68.31,1637342635.53125
868,-75.88,1637342635.546875
869,-83.7,1637342635.5625
870,-91.92,1637342635.578125
871,-100.72,1637342635.59375
872,-109.91,1637342635.609375
873,-118.67,1637342635.625
874,-125.46,1637342635.640625
875,-128.35,1637342635.65625
876,-125.4,1637342635.671875
877,-115.02,1637342635.6875
878,-96.2,1637342635.703125
879,-68.68,1637342635.71875
880,-33.13,1637342635.734375
881,8.64,1637342635.75
882,53.51,1637342635.765625
883,97.49,1637342635.78125
884,136.47,1637342635.796875
885,167.31,1637342635.8125
886,188.57,1637342635.828125
887,200.61,1637342635.84375
888,204.95,1637342635.859375
889,203.33,1637342635.875
890,196.99,1637342635.890625
891,186.55,1637342635.90625
892,172.47,1637342635.921875
893,155.48,1637342635.9375
894,136.78,1637342635.953125
895,117.81,1637342635.96875
896,99.78,1637342635.984375
897,83.32,1637342636.0
898,68.53,1637342636.015625
899,55.24,1637342636.03125
900,43.38,1637342636.046875
901,33.13,1637342636.0625
902,24.8,1637342636.078125
903,18.58,1637342636.09375
904,14.3,1637342636.109375
905,11.39,1637342636.125
906,9.12,1637342636.140625
907,6.8,1637342636.15625
908,4.06,1637342636.171875
909,0.85,1637342636.1875
910,-2.54,1637342636.203125
911,-5.81,1637342636.21875
912,-8.71,1637342636.234375
913,-11.16,1637342636.25
914,-13.31,1637342636.265625
915,-15.28,1637342636.28125
916,-17.17,1637342636.296875
917,-18.96,1637342636.3125
918,-20.55,1637342636.328125
919,-21.83,1637342636.34375
920,-22.74,1637342636.359375
921,-23.25,1637342636.375
922,-23.34,1637342636.390625
923,-23.05,1637342636.40625
924,-22.47,1637342636.421875
925,-21.82,1637342636.4375
926,-21.46,1637342636.453125
927,-21.73,1637342636.46875
928,-22.78,1637342636.484375
929,-24.56,1637342636.5
930,-26.7,1637342636.515625
931,-28.74,1637342636.53125
932,-30.35,1637342636.546875
933,-31.44,1637342636.5625
934,-32.24,1637342636.578125
935,-33.12,1637342636.59375
936,-34.4,1637342636.609375
937,-36.21,1637342636.625
938,-38.5,1637342636.640625
939,-41.07,1637342636.65625
940,-43.67,1637342636.671875
941,-46.06,1637342636.6875
942,-47.93,1637342636.703125
943,-48.88,1637342636.71875
944,-48.45,1637342636.734375
945,-46.3,1637342636.75
946,-42.31,1637342636.765625
947,-36.77,1637342636.78125
948,-30.28,1637342636.796875
949,-23.63,1637342636.8125
950,-17.51,1637342636.828125
951,-12.34,1637342636.84375
952,-8.18,1637342636.859375
953,-4.91,1637342636.875
954,-2.31,1637342636.890625
955,-0.19,1637342636.90625
956,1.56,1637342636.921875
957,3.09,1637342636.9375
958,4.52,1637342636.953125
959,6.01,1637342636.96875
960,7.64,1637342636.984375
961,9.39,1637342637.0
962,11.07,1637342637.015625
963,12.44,1637342637.03125
964,13.31,1637342637.046875
965,13.65,1637342637.0625
966,13.62,1637342637.078125
967,13.48,1637342637.09375
968,13.56,1637342637.109375
969,13.99,1637342637.125
970,14.74,1637342637.140625
971,15.62,1637342637.15625
972,16.38,1637342637.171875
973,16.84,1637342637.1875
974,16.96,1637342637.203125
975,16.79,1637342637.21875
976,16.48,1637342637.234375
977,16.13,1637342637.25
978,15.78,1637342637.265625
979,15.39,1637342637.28125
980,14.91,1637342637.296875
981,14.28,1637342637.3125
982,13.45,1637342637.328125
983,12.35,1637342637.34375
984,10.96,1637342637.359375
985,9.28,1637342637.375
986,7.42,1637342637.390625
987,5.55,1637342637.40625
988,3.86,1637342637.421875
989,2.44,1637342637.4375
990,1.23,1637342637.453125
991,0.09,1637342637.46875
992,-1.21,1637342637.484375
993,-2.82,1637342637.5
994,-4.8,1637342637.515625
995,-7.05,1637342637.53125
996,-9.43,1637342637.546875
997,-11.77,1637342637.5625
998,-13.98,1637342637.578125
999,-16.05,1637342637.59375
1000,-18.11,1637342637.609375
1001,-20.35,1637342637.625
1002,-22.95,1637342637.640625
1003,-26.09,1637342637.65625
1004,-29.75,1637342637.671875
1005,-33.7,1637342637.6875
1006,-37.49,1637342637.703125
1007,-40.49,1637342637.71875
1008,-42.07,1637342637.734375
1009,-41.81,1637342637.75
1010,-39.58,1637342637.765625
1011,-35.58,1637342637.78125
1012,-30.24,1637342637.796875
1013,-24.16,1637342637.8125
1014,-17.89,1637342637.828125
1015,-11.91,1637342637.84375
1016,-6.58,1637342637.859375
1017,-2.03,1637342637.875
1018,1.76,1637342637.890625
1019,4.99,1637342637.90625
1020,7.95,1637342637.921875
1021,10.98,1637342637.9375
1022,14.31,1637342637.953125
1023,17.97,1637342637.96875
1024,21.8,1637342637.984375
1025,25.47,1637342638.0
1026,28.62,1637342638.015625
1027,30.96,1637342638.03125
1028,32.33,1637342638.046875
1029,32.75,1637342638.0625
1030,32.39,1637342638.078125
1031,31.57,1637342638.09375
1032,30.62,1637342638.109375
1033,29.83,1637342638.125
1034,29.41,1637342638.140625
1035,29.44,1637342638.15625
1036,29.8,1637342638.171875
1037,30.29,1637342638.1875
1038,30.69,1637342638.203125
1039,30.81,1637342638.21875
1040,30.56,1637342638.234375
1041,29.94,1637342638.25
1042,28.97,1637342638.265625
1043,27.72,1637342638.28125
1044,26.19,1637342638.296875
1045,24.39,1637342638.3125
1046,22.36,1637342638.328125
1047,20.17,1637342638.34375
1048,17.93,1637342638.359375
1049,15.78,1637342638.375
1050,13.82,1637342638.390625
1051,12.04,1637342638.40625
1052,10.42,1637342638.421875
1053,8.89,1637342638.4375
1054,7.36,1637342638.453125
1055,5.82,1637342638.46875
1056,4.25,1637342638.484375
1057,2.67,1637342638.5
1058,1.13,1637342638.515625
1059,-0.33,1637342638.53125
1060,-1.7,1637342638.546875
1061,-3.02,1637342638.5625
1062,-4.36,1637342638.578125
1063,-5.83,1637342638.59375
1064,-7.51,1637342638.609375
1065,-9.46,1637342638.625
1066,-11.64,1637342638.640625
1067,-13.98,1637342638.65625
1068,-16.32,1637342638.671875
1069,-18.54,1637342638.6875
1070,-20.55,1637342638.703125
1071,-22.37,1637342638.71875
1072,-24.14,1637342638.734375
1073,-26.03,1637342638.75
1074,-28.26,1637342638.765625
1075,-31.02,1637342638.78125
1076,-34.4,1637342638.796875
1077,-38.37,1637342638.8125
1078,-42.61,1637342638.828125
1079,-46.56,1637342638.84375
1080,-49.45,1637342638.859375
1081,-50.57,1637342638.875
1082,-49.45,1637342638.890625
1083,-46.05,1637342638.90625
1084,-40.78,1637342638.921875
1085,-34.35,1637342638.9375
1086,-27.55,1637342638.953125
1087,-21.02,1637342638.96875
1088,-15.16,1637342638.984375
1089,-10.07,1637342639.0
1090,-5.73,1637342639.015625
1091,-2.03,1637342639.03125
1092,1.1,1637342639.046875
1093,3.75,1637342639.0625
1094,6.07,1637342639.078125
1095,8.26,1637342639.09375
1096,10.6,1637342639.109375
1097,13.26,1637342639.125
1098,16.27,1637342639.140625
1099,19.42,1637342639.15625
1100,22.29,1637342639.171875
1101,24.49,1637342639.1875
1102,25.78,1637342639.203125
1103,26.2,1637342639.21875
1104,26.08,1637342639.234375
1105,25.81,1637342639.25
1106,25.69,1637342639.265625
1107,25.81,1637342639.28125
1108,26.01,1637342639.296875
1109,26.05,1637342639.3125
1110,25.8,1637342639.328125
1111,25.22,1637342639.34375
1112,24.38,1637342639.359375
1113,23.37,1637342639.375
1114,22.24,1637342639.390625
1115,20.94,1637342639.40625
1116,19.5,1637342639.421875
1117,17.97,1637342639.4375
1118,16.51,1637342639.453125
1119,15.28,1637342639.46875
1120,14.34,1637342639.484375
1121,13.68,1637342639.5
1122,13.12,1637342639.515625
1123,12.52,1637342639.53125
1124,11.79,1637342639.546875
1125,10.96,1637342639.5625
1126,10.09,1637342639.578125
1127,9.2,1637342639.59375
1128,8.17,1637342639.609375
1129,6.86,1637342639.625
1130,5.19,1637342639.640625
1131,3.21,1637342639.65625
1132,1.13,1637342639.671875
1133,-0.82,1637342639.6875
1134,-2.51,1637342639.703125
1135,-4.03,1637342639.71875
1136,-5.55,1637342639.734375
1137,-7.28,1637342639.75
1138,-9.28,1637342639.765625
1139,-11.39,1637342639.78125
1140,-13.38,1637342639.796875
1141,-15.03,1637342639.8125
1142,-16.24,1637342639.828125
1143,-17.15,1637342639.84375
1144,-18.04,1637342639.859375
1145,-19.26,1637342639.875
1146,-21.11,1637342639.890625
1147,-23.74,1637342639.90625
1148,-27.07,1637342639.921875
1149,-30.74,1637342639.9375
1150,-34.13,1637342639.953125
1151,-36.48,1637342639.96875
1152,-37.19,1637342639.984375
1153,-35.94,1637342640.0
1154,-32.81,1637342640.015625
1155,-28.27,1637342640.03125
1156,-22.93,1637342640.046875
1157,-17.36,1637342640.0625
1158,-11.99,1637342640.078125
1159,-7.02,1637342640.09375
1160,-2.6,1637342640.109375
1161,1.21,1637342640.125
1162,4.34,1637342640.140625
1163,6.81,1637342640.15625
1164,8.76,1637342640.171875
1165,10.43,1637342640.1875
1166,12.16,1637342640.203125
1167,14.17,1637342640.21875
1168,16.47,1637342640.234375
1169,18.82,1637342640.25
1170,20.9,1637342640.265625
1171,22.39,1637342640.28125
1172,23.15,1637342640.296875
1173,23.25,1637342640.3125
1174,22.95,1637342640.328125
1175,22.58,1637342640.34375
1176,22.38,1637342640.359375
1177,22.51,1637342640.375
1178,22.95,1637342640.390625
1179,23.56,1637342640.40625
1180,24.12,1637342640.421875
1181,24.39,1637342640.4375
1182,24.18,1637342640.453125
1183,23.36,1637342640.46875
1184,21.96,1637342640.484375
1185,20.17,1637342640.5
1186,18.28,1637342640.515625
1187,16.56,1637342640.53125
1188,15.21,1637342640.546875
1189,14.28,1637342640.5625
1190,13.64,1637342640.578125
1191,13.14,1637342640.59375
1192,12.55,1637342640.609375
1193,11.78,1637342640.625
1194,10.77,1637342640.640625
1195,9.58,1637342640.65625
1196,8.34,1637342640.671875
1197,7.17,1637342640.6875
1198,6.17,1637342640.703125
1199,5.31,1637342640.71875
1200,4.42,1637342640.734375
1201,3.29,1637342640.75
1202,1.75,1637342640.765625
1203,-0.15,1637342640.78125
1204,-2.2,1637342640.796875
1205,-4.02,1637342640.8125
1206,-5.32,1637342640.828125
1207,-6.03,1637342640.84375
1208,-6.43,1637342640.859375
1209,-6.92,1637342640.875
1210,-7.83,1637342640.890625
1211,-9.31,1637342640.90625
1212,-11.19,1637342640.921875
1213,-13.19,1637342640.9375
1214,-15.03,1637342640.953125
1215,-16.61,1637342640.96875
1216,-18.0,1637342640.984375
1217,-19.34,1637342641.0
1218,-20.84,1637342641.015625
1219,-22.67,1637342641.03125
1220,-24.98,1637342641.046875
1221,-27.84,1637342641.0625
1222,-31.14,1637342641.078125
1223,-34.55,1637342641.09375
1224,-37.46,1637342641.109375
1225,-39.14,1637342641.125
1226,-38.9,1637342641.140625
1227,-36.44,1637342641.15625
1228,-31.96,1637342641.171875
1229,-26.19,1637342641.1875
1230,-20.08,1637342641.203125
1231,-14.56,1637342641.21875
1232,-10.2,1637342641.234375
1233,-7.1,1637342641.25
1234,-5.0,1637342641.265625
1235,-3.45,1637342641.28125
1236,-2.05,1637342641.296875
1237,-0.55,1637342641.3125
1238,1.15,1637342641.328125
1239,3.04,1637342641.34375
1240,5.11,1637342641.359375
1241,7.36,1637342641.375
1242,9.71,1637342641.390625
1243,12.03,1637342641.40625
1244,14.08,1637342641.421875
1245,15.66,1637342641.4375
1246,16.62,1637342641.453125
1247,16.95,1637342641.46875
1248,16.81,1637342641.484375
1249,16.42,1637342641.5
1250,16.12,1637342641.515625
1251,16.17,1637342641.53125
1252,16.75,1637342641.546875
1253,17.92,1637342641.5625
1254,19.54,1637342641.578125
1255,21.36,1637342641.59375
1256,23.04,1637342641.609375
1257,24.32,1637342641.625
1258,24.99,1637342641.640625
1259,24.97,1637342641.65625
1260,24.33,1637342641.671875
1261,23.25,1637342641.6875
1262,21.97,1637342641.703125
1263,20.68,1637342641.71875
1264,19.49,1637342641.734375
1265,18.41,1637342641.75
1266,17.39,1637342641.765625
1267,16.33,1637342641.78125
1268,15.19,1637342641.796875
1269,13.99,1637342641.8125
1270,12.77,1637342641.828125
1271,11.52,1637342641.84375
1272,10.17,1637342641.859375
1273,8.6,1637342641.875
1274,6.76,1637342641.890625
1275,4.77,1637342641.90625
1276,2.84,1637342641.921875
1277,1.23,1637342641.9375
1278,-0.01,1637342641.953125
1279,-1.0,1637342641.96875
1280,-2.04,1637342641.984375
1281,-3.47,1637342642.0
1282,-5.47,1637342642.015625
1283,-8.07,1637342642.03125
1284,-11.08,1637342642.046875
1285,-14.25,1637342642.0625
1286,-17.31,1637342642.078125
1287,-20.04,1637342642.09375
1288,-22.4,1637342642.109375
1289,-24.45,1637342642.125
1290,-26.45,1637342642.140625
1291,-28.68,1637342642.15625
1292,-31.32,1637342642.171875
1293,-34.22,1637342642.1875
1294,-37.0,1637342642.203125
1295,-38.97,1637342642.21875
1296,-39.51,1637342642.234375
1297,-38.25,1637342642.25
1298,-35.17,1637342642.265625
1299,-30.64,1637342642.28125
1300,-25.23,1637342642.296875
1301,-19.58,1637342642.3125
1302,-14.22,1637342642.328125
1303,-9.57,1637342642.34375
1304,-5.81,1637342642.359375
1305,-2.93,1637342642.375
1306,-0.79,1637342642.390625
1307,0.9,1637342642.40625
1308,2.43,1637342642.421875
1309,3.99,1637342642.4375
1310,5.62,1637342642.453125
1311,7.28,1637342642.46875
1312,8.84,1637342642.484375
1313,10.22,1637342642.5
1314,11.41,1637342642.515625
1315,12.48,1637342642.53125
1316,13.49,1637342642.546875
1317,14.49,1637342642.5625
1318,15.5,1637342642.578125
1319,16.51,1637342642.59375
1320,17.49,1637342642.609375
1321,18.39,1637342642.625
1322,19.16,1637342642.640625
1323,19.7,1637342642.65625
1324,19.99,1637342642.671875
1325,20.0,1637342642.6875
1326,19.79,1637342642.703125
1327,19.42,1637342642.71875
1328,18.94,1637342642.734375
1329,18.37,1637342642.75
1330,17.67,1637342642.765625
1331,16.79,1637342642.78125
1332,15.73,1637342642.796875
1333,14.56,1637342642.8125
1334,13.4,1637342642.828125
1335,12.35,1637342642.84375
1336,11.41,1637342642.859375
1337,10.52,1637342642.875
1338,9.58,1637342642.890625
1339,8.55,1637342642.90625
1340,7.47,1637342642.921875
1341,6.43,1637342642.9375
1342,5.5,1637342642.953125
1343,4.66,1637342642.96875
1344,3.77,1637342642.984375
1345,2.66,1637342643.0
1346,1.17,1637342643.015625
1347,-0.75,1637342643.03125
1348,-3.0,1637342643.046875
1349,-5.42,1637342643.0625
1350,-7.88,1637342643.078125
1351,-10.24,1637342643.09375
1352,-12.45,1637342643.109375
1353,-14.49,1637342643.125
1354,-16.4,1637342643.140625
1355,-18.3,1637342643.15625
1356,-20.41,1637342643.171875
1357,-22.97,1637342643.1875
1358,-26.21,1637342643.203125
1359,-30.18,1637342643.21875
1360,-34.57,1637342643.234375
1361,-38.79,1637342643.25
1362,-42.06,1637342643.265625
1363,-43.64,1637342643.28125
1364,-43.15,1637342643.296875
1365,-40.56,1637342643.3125
1366,-36.26,1637342643.328125
1367,-30.85,1637342643.34375
1368,-24.97,1637342643.359375
1369,-19.15,1637342643.375
1370,-13.74,1637342643.390625
1371,-8.98,1637342643.40625
1372,-4.92,1637342643.421875
1373,-1.5,1637342643.4375
1374,1.47,1637342643.453125
1375,4.22,1637342643.46875
1376,6.93,1637342643.484375
1377,9.69,1637342643.5
1378,12.46,1637342643.515625
1379,15.14,1637342643.53125
1380,17.6,1637342643.546875
1381,19.72,1637342643.5625
1382,21.38,1637342643.578125
1383,22.46,1637342643.59375
1384,22.91,1637342643.609375
1385,22.77,1637342643.625
1386,22.22,1637342643.640625
1387,21.56,1637342643.65625
1388,21.1,1637342643.671875
1389,21.06,1637342643.6875
1390,21.42,1637342643.703125
1391,21.96,1637342643.71875
1392,22.36,1637342643.734375
1393,22.36,1637342643.75
1394,21.84,1637342643.765625
1395,20.9,1637342643.78125
1396,19.81,1637342643.796875
1397,18.85,1637342643.8125
1398,18.2,1637342643.828125
1399,17.84,1637342643.84375
1400,17.6,1637342643.859375
1401,17.19,1637342643.875
1402,16.43,1637342643.890625
1403,15.27,1637342643.90625
1404,13.89,1637342643.921875
1405,12.51,1637342643.9375
1406,11.34,1637342643.953125
1407,10.49,1637342643.96875
1408,9.91,1637342643.984375
1409,9.48,1637342644.0
1410,9.04,1637342644.015625
1411,8.49,1637342644.03125
1412,7.78,1637342644.046875
1413,6.87,1637342644.0625
1414,5.75,1637342644.078125
1415,4.45,1637342644.09375
1416,2.97,1637342644.109375
1417,1.42,1637342644.125
1418,-0.09,1637342644.140625
1419,-1.43,1637342644.15625
1420,-2.52,1637342644.171875
1421,-3.31,1637342644.1875
1422,-3.91,1637342644.203125
1423,-4.48,1637342644.21875
1424,-5.22,1637342644.234375
1425,-6.29,1637342644.25
1426,-7.78,1637342644.265625
1427,-9.68,1637342644.28125
1428,-11.9,1637342644.296875
1429,-14.32,1637342644.3125
1430,-16.82,1637342644.328125
1431,-19.38,1637342644.34375
1432,-22.07,1637342644.359375
1433,-25.05,1637342644.375
1434,-28.43,1637342644.390625
1435,-32.21,1637342644.40625
1436,-36.05,1637342644.421875
1437,-39.39,1637342644.4375
1438,-41.47,1637342644.453125
1439,-41.64,1637342644.46875
1440,-39.62,1637342644.484375
1441,-35.61,1637342644.5
1442,-30.26,1637342644.515625
1443,-24.42,1637342644.53125
1444,-18.79,1637342644.546875
1445,-13.77,1637342644.5625
1446,-9.43,1637342644.578125
1447,-5.69,1637342644.59375
1448,-2.5,1637342644.609375
1449,0.14,1637342644.625
1450,2.23,1637342644.640625
1451,3.85,1637342644.65625
1452,5.26,1637342644.671875
1453,6.77,1637342644.6875
1454,8.65,1637342644.703125
1455,10.91,1637342644.71875
1456,13.33,1637342644.734375
1457,15.55,1637342644.75
1458,17.21,1637342644.765625
1459,18.16,1637342644.78125
1460,18.42,1637342644.796875
1461,18.17,1637342644.8125
1462,17.68,1637342644.828125
1463,17.18,1637342644.84375
1464,16.83,1637342644.859375
1465,16.72,1637342644.875
1466,16.88,1637342644.890625
1467,17.28,1637342644.90625
1468,17.84,1637342644.921875
1469,18.43,1637342644.9375
1470,18.92,1637342644.953125
1471,19.21,1637342644.96875
1472,19.25,1637342644.984375
1473,19.07,1637342645.0
1474,18.75,1637342645.015625
1475,18.43,1637342645.03125
1476,18.16,1637342645.046875
1477,17.9,1637342645.0625
1478,17.61,1637342645.078125
1479,17.19,1637342645.09375
1480,16.58,1637342645.109375
1481,15.8,1637342645.125
1482,14.93,1637342645.140625
1483,14.05,1637342645.15625
1484,13.17,1637342645.171875
1485,12.23,1637342645.1875
1486,11.15,1637342645.203125
1487,9.82,1637342645.21875
1488,8.25,1637342645.234375
1489,6.47,1637342645.25
1490,4.6,1637342645.265625
1491,2.69,1637342645.28125
1492,0.82,1637342645.296875
1493,-1.02,1637342645.3125
1494,-2.93,1637342645.328125
1495,-4.97,1637342645.34375
1496,-7.25,1637342645.359375
1497,-9.7,1637342645.375
1498,-12.26,1637342645.390625
1499,-14.75,1637342645.40625
1500,-17.04,1637342645.421875
1501,-19.07,1637342645.4375
1502,-20.93,1637342645.453125
1503,-22.76,1637342645.46875
1504,-24.77,1637342645.484375
1505,-27.11,1637342645.5
1506,-29.86,1637342645.515625
1507,-32.86,1637342645.53125
1508,-35.81,1637342645.546875
1509,-38.21,1637342645.5625
1510,-39.49,1637342645.578125
1511,-39.19,1637342645.59375
1512,-37.09,1637342645.609375
1513,-33.36,1637342645.625
1514,-28.47,1637342645.640625
1515,-23.06,1637342645.65625
1516,-17.76,1637342645.671875
1517,-12.99,1637342645.6875
1518,-8.92,1637342645.703125
1519,-5.5,1637342645.71875
1520,-2.6,1637342645.734375
1521,-0.05,1637342645.75
1522,2.27,1637342645.765625
1523,4.42,1637342645.78125
1524,6.49,1637342645.796875
1525,8.49,1637342645.8125
1526,10.48,1637342645.828125
1527,12.46,1637342645.84375
1528,14.36,1637342645.859375
1529,16.12,1637342645.875
1530,17.65,1637342645.890625
1531,18.87,1637342645.90625
1532,19.7,1637342645.921875
1533,20.17,1637342645.9375
1534,20.35,1637342645.953125
1535,20.37,1637342645.96875
1536,20.37,1637342645.984375
1537,20.5,1637342646.0
1538,20.82,1637342646.015625
1539,21.28,1637342646.03125
1540,21.83,1637342646.046875
1541,22.29,1637342646.0625
1542,22.54,1637342646.078125
1543,22.42,1637342646.09375
1544,21.85,1637342646.109375
1545,20.79,1637342646.125
1546,19.33,1637342646.140625
1547,17.63,1637342646.15625
1548,15.92,1637342646.171875
1549,14.38,1637342646.1875
1550,13.11,1637342646.203125
1551,12.07,1637342646.21875
1552,11.18,1637342646.234375
1553,10.24,1637342646.25
1554,9.17,1637342646.265625
1555,7.99,1637342646.28125
1556,6.82,1637342646.296875
1557,5.81,1637342646.3125
1558,5.08,1637342646.328125
1559,4.57,1637342646.34375
1560,4.14,1637342646.359375
1561,3.56,1637342646.375
1562,2.69,1637342646.390625
1563,1.56,1637342646.40625
1564,0.34,1637342646.421875
1565,-0.74,1637342646.4375
1566,-1.53,1637342646.453125
1567,-2.08,1637342646.46875
1568,-2.68,1637342646.484375
1569,-3.7,1637342646.5
1570,-5.4,1637342646.515625
1571,-7.8,1637342646.53125
1572,-10.68,1637342646.546875
1573,-13.61,1637342646.5625
1574,-16.29,1637342646.578125
1575,-18.54,1637342646.59375
1576,-20.44,1637342646.609375
1577,-22.27,1637342646.625
1578,-24.35,1637342646.640625
1579,-26.95,1637342646.65625
1580,-30.12,1637342646.671875
1581,-33.73,1637342646.6875
1582,-37.32,1637342646.703125
1583,-40.28,1637342646.71875
1584,-41.93,1637342646.734375
1585,-41.72,1637342646.75
1586,-39.36,1637342646.765625
1587,-35.0,1637342646.78125
1588,-29.2,1637342646.796875
1589,-22.79,1637342646.8125
1590,-16.63,1637342646.828125
1591,-11.37,1637342646.84375
1592,-7.32,1637342646.859375
1593,-4.38,1637342646.875
1594,-2.21,1637342646.890625
1595,-0.38,1637342646.90625
1596,1.41,1637342646.921875
1597,3.38,1637342646.9375
1598,5.55,1637342646.953125
1599,7.87,1637342646.96875
1600,10.27,1637342646.984375
1601,12.65,1637342647.0
1602,14.91,1637342647.015625
1603,16.93,1637342647.03125
1604,18.56,1637342647.046875
1605,19.77,1637342647.0625
1606,20.53,1637342647.078125
1607,20.88,1637342647.09375
1608,20.91,1637342647.109375
1609,20.69,1637342647.125
1610,20.29,1637342647.140625
1611,19.85,1637342647.15625
1612,19.48,1637342647.171875
1613,19.32,1637342647.1875
1614,19.45,1637342647.203125
1615,19.79,1637342647.21875
1616,20.17,1637342647.234375
1617,20.37,1637342647.25
1618,20.21,1637342647.265625
1619,19.64,1637342647.28125
1620,18.77,1637342647.296875
1621,17.8,1637342647.3125
1622,16.94,1637342647.328125
1623,16.26,1637342647.34375
1624,15.73,1637342647.359375
1625,15.17,1637342647.375
1626,14.41,1637342647.390625
1627,13.4,1637342647.40625
1628,12.2,1637342647.421875
1629,10.96,1637342647.4375
1630,9.88,1637342647.453125
1631,8.98,1637342647.46875
1632,8.16,1637342647.484375
1633,7.2,1637342647.5
1634,5.88,1637342647.515625
1635,4.07,1637342647.53125
1636,1.82,1637342647.546875
1637,-0.72,1637342647.5625
1638,-3.35,1637342647.578125
1639,-5.91,1637342647.59375
1640,-8.34,1637342647.609375
1641,-10.59,1637342647.625
1642,-12.64,1637342647.640625
1643,-14.42,1637342647.65625
1644,-15.92,1637342647.671875
1645,-17.2,1637342647.6875
1646,-18.44,1637342647.703125
1647,-19.89,1637342647.71875
1648,-21.8,1637342647.734375
1649,-24.32,1637342647.75
1650,-27.43,1637342647.765625
1651,-30.89,1637342647.78125
1652,-34.41,1637342647.796875
1653,-37.54,1637342647.8125
1654,-39.79,1637342647.828125
1655,-40.71,1637342647.84375
1656,-39.94,1637342647.859375
1657,-37.42,1637342647.875
1658,-33.33,1637342647.890625
1659,-28.14,1637342647.90625
1660,-22.44,1637342647.921875
1661,-16.78,1637342647.9375
1662,-11.56,1637342647.953125
1663,-6.99,1637342647.96875
1664,-3.19,1637342647.984375
1665,-0.17,1637342648.0
1666,2.07,1637342648.015625
1667,3.73,1637342648.03125
1668,5.13,1637342648.046875
1669,6.68,1637342648.0625
1670,8.66,1637342648.078125
1671,11.09,1637342648.09375
1672,13.71,1637342648.109375
1673,16.09,1637342648.125
1674,17.84,1637342648.140625
1675,18.82,1637342648.15625
1676,19.2,1637342648.171875
1677,19.3,1637342648.1875
1678,19.44,1637342648.203125
1679,19.81,1637342648.21875
1680,20.41,1637342648.234375
1681,21.06,1637342648.25
1682,21.59,1637342648.265625
1683,21.88,1637342648.28125
1684,21.93,1637342648.296875
1685,21.84,1637342648.3125
1686,21.72,1637342648.328125
1687,21.61,1637342648.34375
1688,21.53,1637342648.359375
1689,21.34,1637342648.375
1690,20.92,1637342648.390625
1691,20.18,1637342648.40625
1692,19.09,1637342648.421875
1693,17.67,1637342648.4375
1694,16.04,1637342648.453125
1695,14.33,1637342648.46875
1696,12.64,1637342648.484375
1697,11.07,1637342648.5
1698,9.62,1637342648.515625
1699,8.24,1637342648.53125
1700,6.74,1637342648.546875
1701,4.91,1637342648.5625
1702,2.59,1637342648.578125
1703,-0.28,1637342648.59375
1704,-3.59,1637342648.609375
1705,-7.15,1637342648.625
1706,-10.73,1637342648.640625
1707,-14.2,1637342648.65625
1708,-17.54,1637342648.671875
1709,-20.9,1637342648.6875
1710,-24.47,1637342648.703125
1711,-28.43,1637342648.71875
1712,-32.76,1637342648.734375
1713,-37.22,1637342648.75
1714,-41.3,1637342648.765625
1715,-44.3,1637342648.78125
1716,-45.59,1637342648.796875
1717,-44.71,1637342648.8125
1718,-41.57,1637342648.828125
1719,-36.52,1637342648.84375
1720,-30.25,1637342648.859375
1721,-23.62,1637342648.875
1722,-17.47,1637342648.890625
1723,-12.36,1637342648.90625
1724,-8.51,1637342648.921875
1725,-5.73,1637342648.9375
1726,-3.56,1637342648.953125
1727,-1.44,1637342648.96875
1728,1.06,1637342648.984375
1729,4.06,1637342649.0
1730,7.48,1637342649.015625
1731,11.0,1637342649.03125
1732,14.34,1637342649.046875
1733,17.26,1637342649.0625
1734,19.63,1637342649.078125
1735,21.4,1637342649.09375
1736,22.56,1637342649.109375
1737,23.13,1637342649.125
1738,23.21,1637342649.140625
1739,22.96,1637342649.15625
1740,22.52,1637342649.171875
1741,22.04,1637342649.1875
1742,21.64,1637342649.203125
1743,21.35,1637342649.21875
1744,21.19,1637342649.234375
1745,21.15,1637342649.25
1746,21.21,1637342649.265625
1747,21.28,1637342649.28125
1748,21.24,1637342649.296875
1749,20.91,1637342649.3125
1750,20.22,1637342649.328125
1751,19.14,1637342649.34375
1752,17.82,1637342649.359375
1753,16.43,1637342649.375
1754,15.1,1637342649.390625
1755,13.86,1637342649.40625
1756,12.68,1637342649.421875
1757,11.47,1637342649.4375
1758,10.18,1637342649.453125
1759,8.83,1637342649.46875
1760,7.46,1637342649.484375
1761,6.15,1637342649.5
1762,4.93,1637342649.515625
1763,3.82,1637342649.53125
1764,2.84,1637342649.546875
1765,1.9,1637342649.5625
1766,0.92,1637342649.578125
1767,-0.27,1637342649.59375
1768,-1.82,1637342649.609375
1769,-3.8,1637342649.625
1770,-6.14,1637342649.640625
1771,-8.63,1637342649.65625
1772,-11.02,1637342649.671875
1773,-13.05,1637342649.6875
1774,-14.67,1637342649.703125
1775,-16.06,1637342649.71875
1776,-17.58,1637342649.734375
1777,-19.7,1637342649.75
1778,-22.83,1637342649.765625
1779,-27.08,1637342649.78125
1780,-32.21,1637342649.796875
1781,-37.55,1637342649.8125
1782,-42.14,1637342649.828125
1783,-44.94,1637342649.84375
1784,-45.18,1637342649.859375
1785,-42.62,1637342649.875
1786,-37.68,1637342649.890625
1787,-31.29,1637342649.90625
1788,-24.56,1637342649.921875
1789,-18.48,1637342649.9375
1790,-13.58,1637342649.953125
1791,-9.9,1637342649.96875
1792,-7.22,1637342649.984375
1793,-5.14,1637342650.0
1794,-3.33,1637342650.015625
1795,-1.49,1637342650.03125
1796,0.61,1637342650.046875
1797,3.18,1637342650.0625
1798,6.32,1637342650.078125
1799,9.93,1637342650.09375
1800,13.73,1637342650.109375
1801,17.26,1637342650.125
1802,20.04,1637342650.140625
1803,21.8,1637342650.15625
1804,22.52,1637342650.171875
1805,22.43,1637342650.1875
1806,21.98,1637342650.203125
1807,21.54,1637342650.21875
1808,21.4,1637342650.234375
1809,21.66,1637342650.25
1810,22.23,1637342650.265625
1811,22.91,1637342650.28125
1812,23.44,1637342650.296875
1813,23.57,1637342650.3125
1814,23.17,1637342650.328125
1815,22.26,1637342650.34375
1816,21.02,1637342650.359375
1817,19.7,1637342650.375
1818,18.59,1637342650.390625
1819,17.78,1637342650.40625
1820,17.29,1637342650.421875
1821,16.92,1637342650.4375
1822,16.5,1637342650.453125
1823,15.87,1637342650.46875
1824,14.98,1637342650.484375
1825,13.83,1637342650.5
1826,12.43,1637342650.515625
1827,10.75,1637342650.53125
1828,8.8,1637342650.546875
1829,6.66,1637342650.5625
1830,4.44,1637342650.578125
1831,2.36,1637342650.59375
1832,0.53,1637342650.609375
1833,-1.04,1637342650.625
1834,-2.46,1637342650.640625
1835,-3.95,1637342650.65625
1836,-5.68,1637342650.671875
1837,-7.74,1637342650.6875
1838,-10.05,1637342650.703125
1839,-12.56,1637342650.71875
1840,-15.19,1637342650.734375
1841,-18.04,1637342650.75
1842,-21.33,1637342650.765625
1843,-25.23,1637342650.78125
1844,-29.78,1637342650.796875
1845,-34.58,1637342650.8125
1846,-38.9,1637342650.828125
1847,-41.75,1637342650.84375
1848,-42.25,1637342650.859375
1849,-39.89,1637342650.875
1850,-34.81,1637342650.890625
1851,-27.75,1637342650.90625
1852,-19.86,1637342650.921875
1853,-12.35,1637342650.9375
1854,-6.11,1637342650.953125
1855,-1.59,1637342650.96875
1856,1.31,1637342650.984375
1857,2.94,1637342651.0
1858,3.82,1637342651.015625
1859,4.33,1637342651.03125
1860,4.71,1637342651.046875
1861,5.09,1637342651.0625
1862,5.54,1637342651.078125
1863,6.19,1637342651.09375
1864,7.13,1637342651.109375
1865,8.48,1637342651.125
1866,10.12,1637342651.140625
1867,11.86,1637342651.15625
1868,13.43,1637342651.171875
1869,14.7,1637342651.1875
1870,15.74,1637342651.203125
1871,16.78,1637342651.21875
1872,18.05,1637342651.234375
1873,19.63,1637342651.25
1874,21.34,1637342651.265625
1875,22.89,1637342651.28125
1876,23.96,1637342651.296875
1877,24.37,1637342651.3125
1878,24.17,1637342651.328125
1879,23.51,1637342651.34375
1880,22.59,1637342651.359375
1881,21.5,1637342651.375
1882,20.29,1637342651.390625
1883,18.94,1637342651.40625
1884,17.44,1637342651.421875
1885,15.85,1637342651.4375
1886,14.26,1637342651.453125
1887,12.69,1637342651.46875
1888,11.16,1637342651.484375
1889,9.66,1637342651.5
1890,8.17,1637342651.515625
1891,6.72,1637342651.53125
1892,5.32,1637342651.546875
1893,3.99,1637342651.5625
1894,2.66,1637342651.578125
1895,1.16,1637342651.59375
1896,-0.65,1637342651.609375
1897,-2.87,1637342651.625
1898,-5.47,1637342651.640625
1899,-8.31,1637342651.65625
1900,-11.15,1637342651.671875
1901,-13.81,1637342651.6875
1902,-16.27,1637342651.703125
1903,-18.67,1637342651.71875
1904,-21.28,1637342651.734375
1905,-24.38,1637342651.75
1906,-28.1,1637342651.765625
1907,-32.32,1637342651.78125
1908,-36.6,1637342651.796875
1909,-40.28,1637342651.8125
1910,-42.56,1637342651.828125
1911,-42.76,1637342651.84375
1912,-40.52,1637342651.859375
1913,-36.0,1637342651.875
1914,-29.87,1637342651.890625
1915,-23.1,1637342651.90625
1916,-16.72,1637342651.921875
1917,-11.47,1637342651.9375
1918,-7.64,1637342651.953125
1919,-5.06,1637342651.96875
1920,-3.24,1637342651.984375
1921,-1.57,1637342652.0
1922,0.41,1637342652.015625
1923,3.01,1637342652.03125
1924,6.25,1637342652.046875
1925,10.02,1637342652.0625
1926,14.05,1637342652.078125
1927,17.95,1637342652.09375
1928,21.34,1637342652.109375
1929,23.88,1637342652.125
1930,25.42,1637342652.140625
1931,26.04,1637342652.15625
1932,26.01,1637342652.171875
1933,25.7,1637342652.1875
1934,25.44,1637342652.203125
1935,25.4,1637342652.21875
1936,25.56,1637342652.234375
1937,25.81,1637342652.25
1938,26.07,1637342652.265625
1939,26.26,1637342652.28125
1940,26.44,1637342652.296875
1941,26.66,1637342652.3125
1942,26.89,1637342652.328125
1943,27.08,1637342652.34375
1944,27.09,1637342652.359375
1945,26.84,1637342652.375
1946,26.29,1637342652.390625
1947,25.52,1637342652.40625
1948,24.61,1637342652.421875
1949,23.64,1637342652.4375
1950,22.65,1637342652.453125
1951,21.6,1637342652.46875
1952,20.47,1637342652.484375
1953,19.18,1637342652.5
1954,17.71,1637342652.515625
1955,16.04,1637342652.53125
1956,14.14,1637342652.546875
1957,12.05,1637342652.5625
1958,9.82,1637342652.578125
1959,7.58,1637342652.59375
1960,5.5,1637342652.609375
1961,3.77,1637342652.625
1962,2.47,1637342652.640625
1963,1.57,1637342652.65625
1964,0.89,1637342652.671875
1965,0.22,1637342652.6875
1966,-0.63,1637342652.703125
1967,-1.7,1637342652.71875
1968,-2.98,1637342652.734375
1969,-4.43,1637342652.75
1970,-6.09,1637342652.765625
1971,-8.12,1637342652.78125
1972,-10.66,1637342652.796875
1973,-13.72,1637342652.8125
1974,-17.14,1637342652.828125
1975,-20.62,1637342652.84375
1976,-23.87,1637342652.859375
1977,-26.74,1637342652.875
1978,-29.3,1637342652.890625
1979,-31.78,1637342652.90625
1980,-34.44,1637342652.921875
1981,-37.45,1637342652.9375
1982,-40.85,1637342652.953125
1983,-44.53,1637342652.96875
1984,-48.15,1637342652.984375
1985,-51.16,1637342653.0
1986,-52.83,1637342653.015625
1987,-52.44,1637342653.03125
1988,-49.51,1637342653.046875
1989,-44.08,1637342653.0625
1990,-36.74,1637342653.078125
1991,-28.52,1637342653.09375
1992,-20.57,1637342653.109375
1993,-13.74,1637342653.125
1994,-8.44,1637342653.140625
1995,-4.56,1637342653.15625
1996,-1.67,1637342653.171875
1997,0.77,1637342653.1875
1998,3.2,1637342653.203125
1999,5.89,1637342653.21875
2000,8.88,1637342653.234375
2001,12.04,1637342653.25
2002,15.18,1637342653.265625
2003,18.11,1637342653.28125
2004,20.61,1637342653.296875
2005,22.55,1637342653.3125
2006,23.87,1637342653.328125
2007,24.56,1637342653.34375
2008,24.72,1637342653.359375
2009,24.54,1637342653.375
2010,24.23,1637342653.390625
2011,24.0,1637342653.40625
2012,24.01,1637342653.421875
2013,24.27,1637342653.4375
2014,24.7,1637342653.453125
2015,25.1,1637342653.46875
2016,25.29,1637342653.484375
2017,25.05,1637342653.5
2018,24.32,1637342653.515625
2019,23.11,1637342653.53125
2020,21.6,1637342653.546875
2021,20.08,1637342653.5625
2022,18.8,1637342653.578125
2023,17.95,1637342653.59375
2024,17.47,1637342653.609375
2025,17.22,1637342653.625
2026,16.96,1637342653.640625
2027,16.56,1637342653.65625
2028,16.09,1637342653.671875
2029,15.71,1637342653.6875
2030,15.63,1637342653.703125
2031,15.87,1637342653.71875
2032,16.26,1637342653.734375
2033,16.44,1637342653.75
2034,16.07,1637342653.765625
2035,14.96,1637342653.78125
2036,13.15,1637342653.796875
2037,10.94,1637342653.8125
2038,8.65,1637342653.828125
2039,6.56,1637342653.84375
2040,4.69,1637342653.859375
2041,2.94,1637342653.875
2042,1.08,1637342653.890625
2043,-1.02,1637342653.90625
2044,-3.36,1637342653.921875
2045,-5.8,1637342653.9375
2046,-8.17,1637342653.953125
2047,-10.39,1637342653.96875
2048,-12.49,1637342653.984375
2049,-14.59,1637342654.0
2050,-16.78,1637342654.015625
2051,-19.04,1637342654.03125
2052,-21.29,1637342654.046875
2053,-23.46,1637342654.0625
2054,-25.61,1637342654.078125
2055,-27.97,1637342654.09375
2056,-30.74,1637342654.109375
2057,-33.93,1637342654.125
2058,-37.19,1637342654.140625
2059,-39.78,1637342654.15625
2060,-40.8,1637342654.171875
2061,-39.53,1637342654.1875
2062,-35.71,1637342654.203125
2063,-29.68,1637342654.21875
2064,-22.22,1637342654.234375
2065,-14.37,1637342654.25
2066,-7.05,1637342654.265625
2067,-1.0,1637342654.28125
2068,3.39,1637342654.296875
2069,6.05,1637342654.3125
2070,7.19,1637342654.328125
2071,7.3,1637342654.34375
2072,6.97,1637342654.359375
2073,6.82,1637342654.375
2074,7.31,1637342654.390625
2075,8.58,1637342654.40625
2076,10.47,1637342654.421875
2077,12.63,1637342654.4375
2078,14.69,1637342654.453125
2079,16.37,1637342654.46875
2080,17.55,1637342654.484375
2081,18.22,1637342654.5
2082,18.45,1637342654.515625
2083,18.33,1637342654.53125
2084,18.01,1637342654.546875
2085,17.67,1637342654.5625
2086,17.49,1637342654.578125
2087,17.55,1637342654.59375
2088,17.83,1637342654.609375
2089,18.13,1637342654.625
2090,18.1,1637342654.640625
2091,17.4,1637342654.65625
2092,15.84,1637342654.671875
2093,13.47,1637342654.6875
2094,10.65,1637342654.703125
2095,7.86,1637342654.71875
2096,5.59,1637342654.734375
2097,4.19,1637342654.75
2098,3.66,1637342654.765625
2099,3.81,1637342654.78125
2100,4.28,1637342654.796875
2101,4.72,1637342654.8125
2102,4.89,1637342654.828125
2103,4.7,1637342654.84375
2104,4.25,1637342654.859375
2105,3.64,1637342654.875
2106,2.97,1637342654.890625
2107,2.26,1637342654.90625
2108,1.45,1637342654.921875
2109,0.43,1637342654.9375
2110,-0.94,1637342654.953125
2111,-2.71,1637342654.96875
2112,-4.83,1637342654.984375
2113,-7.21,1637342655.0
2114,-9.67,1637342655.015625
2115,-12.1,1637342655.03125
2116,-14.44,1637342655.046875
2117,-16.69,1637342655.0625
2118,-18.93,1637342655.078125
2119,-21.27,1637342655.09375
2120,-23.85,1637342655.109375
2121,-26.81,1637342655.125
2122,-30.22,1637342655.140625
2123,-33.93,1637342655.15625
2124,-37.56,1637342655.171875
2125,-40.44,1637342655.1875
2126,-41.73,1637342655.203125
2127,-40.77,1637342655.21875
2128,-37.3,1637342655.234375
2129,-31.71,1637342655.25
2130,-24.9,1637342655.265625
2131,-18.04,1637342655.28125
2132,-12.14,1637342655.296875
2133,-7.72,1637342655.3125
2134,-4.78,1637342655.328125
2135,-2.88,1637342655.34375
2136,-1.42,1637342655.359375
2137,0.12,1637342655.375
2138,2.07,1637342655.390625
2139,4.55,1637342655.40625
2140,7.53,1637342655.421875
2141,10.87,1637342655.4375
2142,14.39,1637342655.453125
2143,17.85,1637342655.46875
2144,20.99,1637342655.484375
2145,23.53,1637342655.5
2146,25.22,1637342655.515625
2147,25.95,1637342655.53125
2148,25.68,1637342655.546875
2149,24.55,1637342655.5625
2150,22.8,1637342655.578125
2151,20.78,1637342655.59375
2152,18.83,1637342655.609375
2153,17.2,1637342655.625
2154,16.0,1637342655.640625
2155,15.24,1637342655.65625
2156,14.82,1637342655.671875
2157,14.66,1637342655.6875
2158,14.75,1637342655.703125
2159,15.04,1637342655.71875
2160,15.52,1637342655.734375
2161,16.09,1637342655.75
2162,16.55,1637342655.765625
2163,16.66,1637342655.78125
2164,16.23,1637342655.796875
2165,15.22,1637342655.8125
2166,13.77,1637342655.828125
2167,12.2,1637342655.84375
2168,10.8,1637342655.859375
2169,9.81,1637342655.875
2170,9.27,1637342655.890625
2171,9.03,1637342655.90625
2172,8.82,1637342655.921875
2173,8.39,1637342655.9375
2174,7.6,1637342655.953125
2175,6.43,1637342655.96875
2176,5.02,1637342655.984375
2177,3.56,1637342656.0
2178,2.25,1637342656.015625
2179,1.22,1637342656.03125
2180,0.45,1637342656.046875
2181,-0.23,1637342656.0625
2182,-1.11,1637342656.078125
2183,-2.48,1637342656.09375
2184,-4.48,1637342656.109375
2185,-7.08,1637342656.125
2186,-10.18,1637342656.140625
2187,-13.53,1637342656.15625
2188,-16.94,1637342656.171875
2189,-20.22,1637342656.1875
2190,-23.2,1637342656.203125
2191,-25.74,1637342656.21875
2192,-27.84,1637342656.234375
2193,-29.7,1637342656.25
2194,-31.72,1637342656.265625
2195,-34.32,1637342656.28125
2196,-37.74,1637342656.296875
2197,-41.76,1637342656.3125
2198,-45.75,1637342656.328125
2199,-48.72,1637342656.34375
2200,-49.73,1637342656.359375
2201,-48.2,1637342656.375
2202,-44.1,1637342656.390625
2203,-37.98,1637342656.40625
2204,-30.77,1637342656.421875
2205,-23.47,1637342656.4375
2206,-16.87,1637342656.453125
2207,-11.38,1637342656.46875
2208,-7.06,1637342656.484375
2209,-3.77,1637342656.5
2210,-1.23,1637342656.515625
2211,0.81,1637342656.53125
2212,2.62,1637342656.546875
2213,4.47,1637342656.5625
2214,6.61,1637342656.578125
2215,9.2,1637342656.59375
2216,12.21,1637342656.609375
2217,15.35,1637342656.625
2218,18.2,1637342656.640625
2219,20.36,1637342656.65625
2220,21.65,1637342656.671875
2221,22.22,1637342656.6875
2222,22.46,1637342656.703125
2223,22.74,1637342656.71875
2224,23.2,1637342656.734375
2225,23.8,1637342656.75
2226,24.33,1637342656.765625
2227,24.64,1637342656.78125
2228,24.69,1637342656.796875
2229,24.56,1637342656.8125
2230,24.38,1637342656.828125
2231,24.19,1637342656.84375
2232,23.96,1637342656.859375
2233,23.64,1637342656.875
2234,23.14,1637342656.890625
2235,22.46,1637342656.90625
2236,21.61,1637342656.921875
2237,20.67,1637342656.9375
2238,19.72,1637342656.953125
2239,18.82,1637342656.96875
2240,18.03,1637342656.984375
2241,17.29,1637342657.0
2242,16.51,1637342657.015625
2243,15.49,1637342657.03125
2244,14.08,1637342657.046875
2245,12.16,1637342657.0625
2246,9.77,1637342657.078125
2247,7.05,1637342657.09375
2248,4.2,1637342657.109375
2249,1.43,1637342657.125
2250,-1.12,1637342657.140625
2251,-3.37,1637342657.15625
2252,-5.36,1637342657.171875
2253,-7.12,1637342657.1875
2254,-8.72,1637342657.203125
2255,-10.17,1637342657.21875
2256,-11.49,1637342657.234375
2257,-12.72,1637342657.25
2258,-13.97,1637342657.265625
2259,-15.31,1637342657.28125
2260,-16.87,1637342657.296875
2261,-18.67,1637342657.3125
2262,-20.78,1637342657.328125
2263,-23.28,1637342657.34375
2264,-26.21,1637342657.359375
2265,-29.58,1637342657.375
2266,-33.2,1637342657.390625
2267,-36.62,1637342657.40625
2268,-39.18,1637342657.421875
2269,-40.19,1637342657.4375
2270,-39.13,1637342657.453125
2271,-35.89,1637342657.46875
2272,-30.82,1637342657.484375
2273,-24.65,1637342657.5
2274,-18.26,1637342657.515625
2275,-12.46,1637342657.53125
2276,-7.74,1637342657.546875
2277,-4.22,1637342657.5625
2278,-1.74,1637342657.578125
2279,0.07,1637342657.59375
2280,1.6,1637342657.609375
2281,3.16,1637342657.625
2282,4.88,1637342657.640625
2283,6.81,1637342657.65625
2284,8.9,1637342657.671875
2285,11.1,1637342657.6875
2286,13.34,1637342657.703125
2287,15.5,1637342657.71875
2288,17.45,1637342657.734375
2289,18.99,1637342657.75
2290,19.97,1637342657.765625
2291,20.4,1637342657.78125
2292,20.42,1637342657.796875
2293,20.32,1637342657.8125
2294,20.37,1637342657.828125
2295,20.75,1637342657.84375
2296,21.41,1637342657.859375
2297,22.13,1637342657.875
2298,22.61,1637342657.890625
2299,22.58,1637342657.90625
2300,21.95,1637342657.921875
2301,20.8,1637342657.9375
2302,19.35,1637342657.953125
2303,17.84,1637342657.96875
2304,16.45,1637342657.984375
2305,15.23,1637342658.0
2306,14.21,1637342658.015625
2307,13.32,1637342658.03125
2308,12.51,1637342658.046875
2309,11.73,1637342658.0625
2310,10.92,1637342658.078125
2311,10.01,1637342658.09375
2312,8.96,1637342658.109375
2313,7.75,1637342658.125
2314,6.36,1637342658.140625
2315,4.82,1637342658.15625
2316,3.15,1637342658.171875
2317,1.34,1637342658.1875
2318,-0.63,1637342658.203125
2319,-2.74,1637342658.21875
2320,-4.99,1637342658.234375
2321,-7.31,1637342658.25
2322,-9.63,1637342658.265625
2323,-11.93,1637342658.28125
2324,-14.16,1637342658.296875
2325,-16.31,1637342658.3125
2326,-18.43,1637342658.328125
2327,-20.56,1637342658.34375
2328,-22.85,1637342658.359375
2329,-25.45,1637342658.375
2330,-28.56,1637342658.390625
2331,-32.25,1637342658.40625
2332,-36.38,1637342658.421875
2333,-40.52,1637342658.4375
2334,-43.98,1637342658.453125
2335,-45.97,1637342658.46875
2336,-45.77,1637342658.484375
2337,-43.13,1637342658.5
2338,-38.25,1637342658.515625
2339,-31.84,1637342658.53125
2340,-24.81,1637342658.546875
2341,-18.07,1637342658.5625
2342,-12.22,1637342658.578125
2343,-7.52,1637342658.59375
2344,-3.93,1637342658.609375
2345,-1.28,1637342658.625
2346,0.67,1637342658.640625
2347,2.18,1637342658.65625
2348,3.51,1637342658.671875
2349,4.99,1637342658.6875
2350,6.86,1637342658.703125
2351,9.23,1637342658.71875
2352,11.97,1637342658.734375
2353,14.7,1637342658.75
2354,16.94,1637342658.765625
2355,18.36,1637342658.78125
2356,18.93,1637342658.796875
2357,18.94,1637342658.8125
2358,18.86,1637342658.828125
2359,19.09,1637342658.84375
2360,19.83,1637342658.859375
2361,20.97,1637342658.875
2362,22.21,1637342658.890625
2363,23.28,1637342658.90625
2364,24.07,1637342658.921875
2365,24.65,1637342658.9375
2366,25.2,1637342658.953125
2367,25.86,1637342658.96875
2368,26.56,1637342658.984375
2369,27.1,1637342659.0
2370,27.2,1637342659.015625
2371,26.71,1637342659.03125
2372,25.63,1637342659.046875
2373,24.14,1637342659.0625
2374,22.42,1637342659.078125
2375,20.6,1637342659.09375
2376,18.75,1637342659.109375
2377,16.87,1637342659.125
2378,14.97,1637342659.140625
2379,13.07,1637342659.15625
2380,11.25,1637342659.171875
2381,9.51,1637342659.1875
2382,7.85,1637342659.203125
2383,6.22,1637342659.21875
2384,4.66,1637342659.234375
2385,3.17,1637342659.25
2386,1.81,1637342659.265625
2387,0.56,1637342659.28125
2388,-0.7,1637342659.296875
2389,-2.13,1637342659.3125
2390,-3.86,1637342659.328125
2391,-5.84,1637342659.34375
2392,-7.98,1637342659.359375
2393,-10.05,1637342659.375
2394,-11.99,1637342659.390625
2395,-13.77,1637342659.40625
2396,-15.51,1637342659.421875
2397,-17.32,1637342659.4375
2398,-19.27,1637342659.453125
2399,-21.44,1637342659.46875
2400,-23.93,1637342659.484375
2401,-26.9,1637342659.5
2402,-30.51,1637342659.515625
2403,-34.77,1637342659.53125
2404,-39.41,1637342659.546875
2405,-43.76,1637342659.5625
2406,-47.0,1637342659.578125
2407,-48.29,1637342659.59375
2408,-47.24,1637342659.609375
2409,-43.85,1637342659.625
2410,-38.69,1637342659.640625
2411,-32.5,1637342659.65625
2412,-26.08,1637342659.671875
2413,-19.99,1637342659.6875
2414,-14.56,1637342659.703125
2415,-9.95,1637342659.71875
2416,-6.11,1637342659.734375
2417,-2.93,1637342659.75
2418,-0.24,1637342659.765625
2419,2.18,1637342659.78125
2420,4.58,1637342659.796875
2421,7.15,1637342659.8125
2422,9.98,1637342659.828125
2423,13.01,1637342659.84375
2424,16.08,1637342659.859375
2425,18.94,1637342659.875
2426,21.32,1637342659.890625
2427,22.95,1637342659.90625
2428,23.7,1637342659.921875
2429,23.63,1637342659.9375
2430,23.0,1637342659.953125
2431,22.31,1637342659.96875
2432,22.07,1637342659.984375
2433,22.63,1637342660.0
2434,24.02,1637342660.015625
2435,25.92,1637342660.03125
2436,27.76,1637342660.046875
2437,28.98,1637342660.0625
2438,29.25,1637342660.078125
2439,28.61,1637342660.09375
2440,27.38,1637342660.109375
2441,26.0,1637342660.125
2442,24.81,1637342660.140625
2443,23.95,1637342660.15625
2444,23.32,1637342660.171875
2445,22.7,1637342660.1875
2446,21.81,1637342660.203125
2447,20.54,1637342660.21875
2448,18.84,1637342660.234375
2449,16.89,1637342660.25
2450,14.88,1637342660.265625
2451,12.99,1637342660.28125
2452,11.31,1637342660.296875
2453,9.78,1637342660.3125
2454,8.28,1637342660.328125
2455,6.67,1637342660.34375
2456,4.92,1637342660.359375
2457,3.08,1637342660.375
2458,1.28,1637342660.390625
2459,-0.42,1637342660.40625
2460,-2.0,1637342660.421875
2461,-3.59,1637342660.4375
2462,-5.27,1637342660.453125
2463,-7.15,1637342660.46875
2464,-9.22,1637342660.484375
2465,-11.41,1637342660.5
2466,-13.65,1637342660.515625
2467,-15.9,1637342660.53125
2468,-18.06,1637342660.546875
2469,-20.06,1637342660.5625
2470,-21.86,1637342660.578125
2471,-23.47,1637342660.59375
2472,-25.06,1637342660.609375
2473,-26.96,1637342660.625
2474,-29.55,1637342660.640625
2475,-32.96,1637342660.65625
2476,-36.96,1637342660.671875
2477,-40.78,1637342660.6875
2478,-43.31,1637342660.703125
2479,-43.53,1637342660.71875
2480,-40.9,1637342660.734375
2481,-35.65,1637342660.75
2482,-28.69,1637342660.765625
2483,-21.25,1637342660.78125
2484,-14.45,1637342660.796875
2485,-8.97,1637342660.8125
2486,-4.95,1637342660.828125
2487,-2.15,1637342660.84375
2488,-0.18,1637342660.859375
2489,1.32,1637342660.875
2490,2.63,1637342660.890625
2491,3.97,1637342660.90625
2492,5.51,1637342660.921875
2493,7.36,1637342660.9375
2494,9.52,1637342660.953125
2495,11.85,1637342660.96875
2496,14.08,1637342660.984375
2497,15.97,1637342661.0
2498,17.36,1637342661.015625
2499,18.22,1637342661.03125
2500,18.62,1637342661.046875
2501,18.72,1637342661.0625
2502,18.66,1637342661.078125
2503,18.59,1637342661.09375
2504,18.65,1637342661.109375
2505,18.88,1637342661.125
2506,19.3,1637342661.140625
2507,19.82,1637342661.15625
2508,20.3,1637342661.171875
2509,20.53,1637342661.1875
2510,20.39,1637342661.203125
2511,19.83,1637342661.21875
2512,18.9,1637342661.234375
2513,17.75,1637342661.25
2514,16.57,1637342661.265625
2515,15.5,1637342661.28125
2516,14.58,1637342661.296875
2517,13.76,1637342661.3125
2518,12.89,1637342661.328125
2519,11.85,1637342661.34375
2520,10.54,1637342661.359375
2521,8.99,1637342661.375
2522,7.21,1637342661.390625
2523,5.25,1637342661.40625
2524,3.08,1637342661.421875
2525,0.66,1637342661.4375
2526,-2.02,1637342661.453125
2527,-4.89,1637342661.46875
2528,-7.8,1637342661.484375
2529,-10.58,1637342661.5
2530,-13.14,1637342661.515625
2531,-15.49,1637342661.53125
2532,-17.77,1637342661.546875
2533,-20.2,1637342661.5625
2534,-22.97,1637342661.578125
2535,-26.18,1637342661.59375
2536,-29.83,1637342661.609375
2537,-33.81,1637342661.625
2538,-37.83,1637342661.640625
2539,-41.49,1637342661.65625
2540,-44.21,1637342661.671875
2541,-45.4,1637342661.6875
2542,-44.56,1637342661.703125
2543,-41.46,1637342661.71875
2544,-36.2,1637342661.734375
2545,-29.31,1637342661.75
2546,-21.6,1637342661.765625
2547,-14.06,1637342661.78125
2548,-7.49,1637342661.796875
2549,-2.44,1637342661.8125
2550,1.06,1637342661.828125
2551,3.46,1637342661.84375
2552,5.47,1637342661.859375
2553,7.89,1637342661.875
2554,11.25,1637342661.890625
2555,15.75,1637342661.90625
2556,21.18,1637342661.921875
2557,27.1,1637342661.9375
2558,32.91,1637342661.953125
2559,37.98,1637342661.96875
2560,41.73,1637342661.984375
2561,43.71,1637342662.0
2562,43.69,1637342662.015625
2563,41.75,1637342662.03125
2564,38.32,1637342662.046875
2565,34.1,1637342662.0625
2566,29.83,1637342662.078125
2567,26.16,1637342662.09375
2568,23.44,1637342662.109375
2569,21.78,1637342662.125
2570,21.06,1637342662.140625
2571,21.07,1637342662.15625
2572,21.55,1637342662.171875
2573,22.23,1637342662.1875
2574,22.89,1637342662.203125
2575,23.26,1637342662.21875
2576,23.19,1637342662.234375
2577,22.59,1637342662.25
2578,21.56,1637342662.265625
2579,20.27,1637342662.28125
2580,19.04,1637342662.296875
2581,18.15,1637342662.3125
2582,17.75,1637342662.328125
2583,17.8,1637342662.34375
2584,17.92,1637342662.359375
2585,17.61,1637342662.375
2586,16.26,1637342662.390625
2587,13.47,1637342662.40625
2588,9.2,1637342662.421875
2589,3.89,1637342662.4375
2590,-1.71,1637342662.453125
2591,-6.81,1637342662.46875
2592,-10.84,1637342662.484375
2593,-13.68,1637342662.5
2594,-15.57,1637342662.515625
2595,-17.06,1637342662.53125
2596,-18.63,1637342662.546875
2597,-20.52,1637342662.5625
2598,-22.7,1637342662.578125
2599,-24.93,1637342662.59375
2600,-26.95,1637342662.609375
2601,-28.61,1637342662.625
2602,-29.96,1637342662.640625
2603,-31.19,1637342662.65625
2604,-32.6,1637342662.671875
2605,-34.44,1637342662.6875
2606,-36.94,1637342662.703125
2607,-40.21,1637342662.71875
2608,-44.16,1637342662.734375
2609,-48.42,1637342662.75
2610,-52.36,1637342662.765625
2611,-55.12,1637342662.78125
2612,-55.92,1637342662.796875
2613,-54.25,1637342662.8125
2614,-50.07,1637342662.828125
2615,-43.83,1637342662.84375
2616,-36.33,1637342662.859375
2617,-28.43,1637342662.875
2618,-20.9,1637342662.890625
2619,-14.32,1637342662.90625
2620,-9.02,1637342662.921875
2621,-5.11,1637342662.9375
2622,-2.45,1637342662.953125
2623,-0.67,1637342662.96875
2624,0.8,1637342662.984375
2625,2.55,1637342663.0
2626,5.01,1637342663.015625
2627,8.34,1637342663.03125
2628,12.29,1637342663.046875
2629,16.39,1637342663.0625
2630,20.06,1637342663.078125
2631,22.85,1637342663.09375
2632,24.56,1637342663.109375
2633,25.28,1637342663.125
2634,25.32,1637342663.140625
2635,25.19,1637342663.15625
2636,25.33,1637342663.171875
2637,26.0,1637342663.1875
2638,27.21,1637342663.203125
2639,28.66,1637342663.21875
2640,29.88,1637342663.234375
2641,30.46,1637342663.25
2642,30.24,1637342663.265625
2643,29.34,1637342663.28125
2644,28.08,1637342663.296875
2645,26.88,1637342663.3125
2646,25.98,1637342663.328125
2647,25.44,1637342663.34375
2648,25.11,1637342663.359375
2649,24.72,1637342663.375
2650,23.99,1637342663.390625
2651,22.75,1637342663.40625
2652,20.96,1637342663.421875
2653,18.76,1637342663.4375
2654,16.37,1637342663.453125
2655,14.04,1637342663.46875
2656,11.98,1637342663.484375
2657,10.27,1637342663.5
2658,8.9,1637342663.515625
2659,7.74,1637342663.53125
2660,6.64,1637342663.546875
2661,5.49,1637342663.5625
2662,4.27,1637342663.578125
2663,2.95,1637342663.59375
2664,1.53,1637342663.609375
2665,-0.09,1637342663.625
2666,-2.01,1637342663.640625
2667,-4.32,1637342663.65625
2668,-7.07,1637342663.671875
2669,-10.16,1637342663.6875
2670,-13.41,1637342663.703125
2671,-16.53,1637342663.71875
2672,-19.3,1637342663.734375
2673,-21.59,1637342663.75
2674,-23.44,1637342663.765625
2675,-25.15,1637342663.78125
2676,-27.12,1637342663.796875
2677,-29.77,1637342663.8125
2678,-33.31,1637342663.828125
2679,-37.66,1637342663.84375
2680,-42.32,1637342663.859375
2681,-46.47,1637342663.875
2682,-49.19,1637342663.890625
2683,-49.65,1637342663.90625
2684,-47.47,1637342663.921875
2685,-42.73,1637342663.9375
2686,-36.1,1637342663.953125
2687,-28.51,1637342663.96875
2688,-20.96,1637342663.984375
2689,-14.21,1637342664.0
2690,-8.71,1637342664.015625
2691,-4.54,1637342664.03125
2692,-1.57,1637342664.046875
2693,0.46,1637342664.0625
2694,1.91,1637342664.078125
2695,3.15,1637342664.09375
2696,4.57,1637342664.109375
2697,6.48,1637342664.125
2698,8.97,1637342664.140625
2699,11.86,1637342664.15625
2700,14.8,1637342664.171875
2701,17.36,1637342664.1875
2702,19.28,1637342664.203125
2703,20.52,1637342664.21875
2704,21.29,1637342664.234375
2705,21.84,1637342664.25
2706,22.39,1637342664.265625
2707,22.98,1637342664.28125
2708,23.52,1637342664.296875
2709,23.91,1637342664.3125
2710,24.11,1637342664.328125
2711,24.16,1637342664.34375
2712,24.14,1637342664.359375
2713,24.09,1637342664.375
2714,23.97,1637342664.390625
2715,23.66,1637342664.40625
2716,23.06,1637342664.421875
2717,22.17,1637342664.4375
2718,21.13,1637342664.453125
2719,20.16,1637342664.46875
2720,19.39,1637342664.484375
2721,18.79,1637342664.5
2722,18.16,1637342664.515625
2723,17.24,1637342664.53125
2724,15.82,1637342664.546875
2725,13.9,1637342664.5625
2726,11.69,1637342664.578125
2727,9.51,1637342664.59375
2728,7.59,1637342664.609375
2729,5.97,1637342664.625
2730,4.46,1637342664.640625
2731,2.73,1637342664.65625
2732,0.49,1637342664.671875
2733,-2.37,1637342664.6875
2734,-5.75,1637342664.703125
2735,-9.4,1637342664.71875
2736,-13.03,1637342664.734375
2737,-16.44,1637342664.75
2738,-19.6,1637342664.765625
2739,-22.67,1637342664.78125
2740,-25.89,1637342664.796875
2741,-29.53,1637342664.8125
2742,-33.75,1637342664.828125
2743,-38.54,1637342664.84375
2744,-43.62,1637342664.859375
2745,-48.55,1637342664.875
2746,-52.61,1637342664.890625
2747,-55.02,1637342664.90625
2748,-55.07,1637342664.921875
2749,-52.36,1637342664.9375
2750,-46.98,1637342664.953125
2751,-39.5,1637342664.96875
2752,-30.93,1637342664.984375
2753,-22.4,1637342665.0
2754,-14.85,1637342665.015625
2755,-8.79,1637342665.03125
2756,-4.25,1637342665.046875
2757,-0.81,1637342665.0625
2758,2.05,1637342665.078125
2759,4.86,1637342665.09375
2760,7.88,1637342665.109375
2761,11.2,1637342665.125
2762,14.66,1637342665.140625
2763,18.12,1637342665.15625
2764,21.39,1637342665.171875
2765,24.41,1637342665.1875
2766,27.13,1637342665.203125
2767,29.45,1637342665.21875
2768,31.27,1637342665.234375
2769,32.45,1637342665.25
2770,32.9,1637342665.265625
2771,32.72,1637342665.28125
2772,32.15,1637342665.296875
2773,31.48,1637342665.3125
2774,31.0,1637342665.328125
2775,30.82,1637342665.34375
2776,30.85,1637342665.359375
2777,30.87,1637342665.375
2778,30.64,1637342665.390625
2779,30.0,1637342665.40625
2780,28.91,1637342665.421875
2781,27.46,1637342665.4375
2782,25.82,1637342665.453125
2783,24.15,1637342665.46875
2784,22.56,1637342665.484375
2785,21.12,1637342665.5
2786,19.8,1637342665.515625
2787,18.51,1637342665.53125
2788,17.15,1637342665.546875
2789,15.65,1637342665.5625
2790,14.02,1637342665.578125
2791,12.32,1637342665.59375
2792,10.64,1637342665.609375
2793,9.03,1637342665.625
2794,7.52,1637342665.640625
2795,6.04,1637342665.65625
2796,4.53,1637342665.671875
2797,2.93,1637342665.6875
2798,1.2,1637342665.703125
2799,-0.72,1637342665.71875
2800,-2.86,1637342665.734375
2801,-5.21,1637342665.75
2802,-7.77,1637342665.765625
2803,-10.49,1637342665.78125
2804,-13.32,1637342665.796875
2805,-16.21,1637342665.8125
2806,-19.13,1637342665.828125
2807,-22.04,1637342665.84375
2808,-24.94,1637342665.859375
2809,-27.88,1637342665.875
2810,-31.0,1637342665.890625
2811,-34.52,1637342665.90625
2812,-38.64,1637342665.921875
2813,-43.42,1637342665.9375
2814,-48.63,1637342665.953125
2815,-53.66,1637342665.96875
2816,-57.68,1637342665.984375
2817,-59.83,1637342666.0
2818,-59.45,1637342666.015625
2819,-56.3,1637342666.03125
2820,-50.64,1637342666.046875
2821,-43.12,1637342666.0625
2822,-34.58,1637342666.078125
2823,-25.95,1637342666.09375
2824,-17.98,1637342666.109375
2825,-11.23,1637342666.125
2826,-5.88,1637342666.140625
2827,-1.81,1637342666.15625
2828,1.33,1637342666.171875
2829,4.04,1637342666.1875
2830,6.76,1637342666.203125
2831,9.79,1637342666.21875
2832,13.17,1637342666.234375
2833,16.8,1637342666.25
2834,20.42,1637342666.265625
2835,23.73,1637342666.28125
2836,26.43,1637342666.296875
2837,28.3,1637342666.3125
2838,29.3,1637342666.328125
2839,29.56,1637342666.34375
2840,29.4,1637342666.359375
2841,29.16,1637342666.375
2842,29.1,1637342666.390625
2843,29.31,1637342666.40625
2844,29.69,1637342666.421875
2845,30.05,1637342666.4375
2846,30.26,1637342666.453125
2847,30.27,1637342666.46875
2848,30.17,1637342666.484375
2849,29.97,1637342666.5
2850,29.58,1637342666.515625
2851,28.92,1637342666.53125
2852,27.86,1637342666.546875
2853,26.43,1637342666.5625
2854,24.79,1637342666.578125
2855,23.12,1637342666.59375
2856,21.53,1637342666.609375
2857,20.03,1637342666.625
2858,18.48,1637342666.640625
2859,16.8,1637342666.65625
2860,14.98,1637342666.671875
2861,13.13,1637342666.6875
2862,11.42,1637342666.703125
2863,9.9,1637342666.71875
2864,8.52,1637342666.734375
2865,7.07,1637342666.75
2866,5.37,1637342666.765625
2867,3.29,1637342666.78125
2868,0.94,1637342666.796875
2869,-1.52,1637342666.8125
2870,-3.89,1637342666.828125
2871,-6.05,1637342666.84375
2872,-8.05,1637342666.859375
2873,-10.01,1637342666.875
2874,-12.07,1637342666.890625
2875,-14.21,1637342666.90625
2876,-16.41,1637342666.921875
2877,-18.58,1637342666.9375
2878,-20.77,1637342666.953125
2879,-23.24,1637342666.96875
2880,-26.31,1637342666.984375
2881,-30.22,1637342667.0
2882,-34.89,1637342667.015625
2883,-39.85,1637342667.03125
2884,-44.28,1637342667.046875
2885,-47.31,1637342667.0625
2886,-48.19,1637342667.078125
2887,-46.56,1637342667.09375
2888,-42.51,1637342667.109375
2889,-36.53,1637342667.125
2890,-29.41,1637342667.140625
2891,-21.97,1637342667.15625
2892,-14.99,1637342667.171875
2893,-8.98,1637342667.1875
2894,-4.11,1637342667.203125
2895,-0.26,1637342667.21875
2896,2.93,1637342667.234375
2897,5.81,1637342667.25
2898,8.65,1637342667.265625
2899,11.46,1637342667.28125
2900,14.1,1637342667.296875
2901,16.34,1637342667.3125
2902,18.04,1637342667.328125
2903,19.19,1637342667.34375
2904,19.86,1637342667.359375
2905,20.18,1637342667.375
2906,20.24,1637342667.390625
2907,20.12,1637342667.40625
2908,19.86,1637342667.421875
2909,19.51,1637342667.4375
2910,19.14,1637342667.453125
2911,18.82,1637342667.46875
2912,18.61,1637342667.484375
2913,18.47,1637342667.5
2914,18.35,1637342667.515625
2915,18.11,1637342667.53125
2916,17.63,1637342667.546875
2917,16.84,1637342667.5625
2918,15.71,1637342667.578125
2919,14.28,1637342667.59375
2920,12.63,1637342667.609375
2921,10.84,1637342667.625
2922,9.0,1637342667.640625
2923,7.13,1637342667.65625
2924,5.19,1637342667.671875
2925,3.13,1637342667.6875
2926,0.85,1637342667.703125
2927,-1.63,1637342667.71875
2928,-4.23,1637342667.734375
2929,-6.73,1637342667.75
2930,-8.98,1637342667.765625
2931,-11.0,1637342667.78125
2932,-13.05,1637342667.796875
2933,-15.6,1637342667.8125
2934,-19.07,1637342667.828125
2935,-23.64,1637342667.84375
2936,-29.01,1637342667.859375
2937,-34.48,1637342667.875
2938,-39.13,1637342667.890625
2939,-42.09,1637342667.90625
2940,-42.78,1637342667.921875
2941,-41.02,1637342667.9375
2942,-37.04,1637342667.953125
2943,-31.38,1637342667.96875
2944,-24.74,1637342667.984375
2945,-17.91,1637342668.0
2946,-11.58,1637342668.015625
2947,-6.3,1637342668.03125
2948,-2.27,1637342668.046875
2949,0.58,1637342668.0625
2950,2.63,1637342668.078125
2951,4.33,1637342668.09375
2952,6.08,1637342668.109375
2953,8.12,1637342668.125
2954,10.42,1637342668.140625
2955,12.78,1637342668.15625
2956,14.92,1637342668.171875
2957,16.59,1637342668.1875
2958,17.73,1637342668.203125
2959,18.42,1637342668.21875
2960,18.88,1637342668.234375
2961,19.32,1637342668.25
2962,19.83,1637342668.265625
2963,20.42,1637342668.28125
2964,20.93,1637342668.296875
2965,21.22,1637342668.3125
2966,21.14,1637342668.328125
2967,20.7,1637342668.34375
2968,19.97,1637342668.359375
2969,19.02,1637342668.375
2970,17.92,1637342668.390625
2971,16.64,1637342668.40625
2972,15.07,1637342668.421875
2973,13.03,1637342668.4375
2974,10.45,1637342668.453125
2975,7.37,1637342668.46875
2976,4.04,1637342668.484375
2977,0.77,1637342668.5
2978,-2.15,1637342668.515625
2979,-4.59,1637342668.53125
2980,-6.67,1637342668.546875
2981,-8.63,1637342668.5625
2982,-10.79,1637342668.578125
2983,-13.35,1637342668.59375
2984,-16.42,1637342668.609375
2985,-20.07,1637342668.625
2986,-24.3,1637342668.640625
2987,-29.04,1637342668.65625
2988,-33.94,1637342668.671875
2989,-38.33,1637342668.6875
2990,-41.3,1637342668.703125
2991,-41.96,1637342668.71875
2992,-39.8,1637342668.734375
2993,-34.97,1637342668.75
2994,-28.23,1637342668.765625
2995,-20.66,1637342668.78125
2996,-13.3,1637342668.796875
2997,-6.8,1637342668.8125
2998,-1.37,1637342668.828125
2999,3.12,1637342668.84375
3000,6.9,1637342668.859375
3001,10.22,1637342668.875
3002,13.25,1637342668.890625
3003,16.15,1637342668.90625
3004,19.07,1637342668.921875
3005,22.14,1637342668.9375
3006,25.38,1637342668.953125
3007,28.62,1637342668.96875
3008,31.58,1637342668.984375
3009,33.87,1637342669.0
3010,35.25,1637342669.015625
3011,35.72,1637342669.03125
3012,35.48,1637342669.046875
3013,34.98,1637342669.0625
3014,34.64,1637342669.078125
3015,34.8,1637342669.09375
3016,35.47,1637342669.109375
3017,36.41,1637342669.125
3018,37.2,1637342669.140625
3019,37.45,1637342669.15625
3020,36.91,1637342669.171875
3021,35.64,1637342669.1875
3022,33.9,1637342669.203125
3023,31.99,1637342669.21875
3024,30.22,1637342669.234375
3025,28.68,1637342669.25
3026,27.39,1637342669.265625
3027,26.22,1637342669.28125
3028,25.04,1637342669.296875
3029,23.68,1637342669.3125
3030,22.06,1637342669.328125
3031,20.15,1637342669.34375
3032,18.03,1637342669.359375
3033,15.9,1637342669.375
3034,14.05,1637342669.390625
3035,12.74,1637342669.40625
3036,12.06,1637342669.421875
3037,11.91,1637342669.4375
3038,11.99,1637342669.453125
3039,11.95,1637342669.46875
3040,11.58,1637342669.484375
3041,10.86,1637342669.5
3042,9.95,1637342669.515625
3043,9.09,1637342669.53125
3044,8.39,1637342669.546875
3045,7.82,1637342669.5625
3046,7.13,1637342669.578125
3047,5.99,1637342669.59375
3048,4.17,1637342669.609375
3049,1.63,1637342669.625
3050,-1.43,1637342669.640625
3051,-4.61,1637342669.65625
3052,-7.46,1637342669.671875
3053,-9.52,1637342669.6875
3054,-10.51,1637342669.703125
3055,-10.48,1637342669.71875
3056,-9.95,1637342669.734375
3057,-10.01,1637342669.75
3058,-12.14,1637342669.765625
3059,-17.77,1637342669.78125
3060,-27.76,1637342669.796875
3061,-41.85,1637342669.8125
3062,-58.62,1637342669.828125
3063,-75.79,1637342669.84375
3064,-90.85,1637342669.859375
3065,-101.78,1637342669.875
3066,-107.42,1637342669.890625
3067,-107.56,1637342669.90625
3068,-102.71,1637342669.921875
3069,-93.8,1637342669.9375
3070,-81.97,1637342669.953125
3071,-68.5,1637342669.96875
3072,-54.68,1637342669.984375
3073,-41.73,1637342670.0
3074,-30.55,1637342670.015625
3075,-21.61,1637342670.03125
3076,-14.8,1637342670.046875
3077,-9.58,1637342670.0625
3078,-5.12,1637342670.078125
3079,-0.6,1637342670.09375
3080,4.58,1637342670.109375
3081,10.54,1637342670.125
3082,16.96,1637342670.140625
3083,23.16,1637342670.15625
3084,28.43,1637342670.171875
3085,32.28,1637342670.1875
3086,34.63,1637342670.203125
3087,35.76,1637342670.21875
3088,36.16,1637342670.234375
3089,36.26,1637342670.25
3090,36.33,1637342670.265625
3091,36.42,1637342670.28125
3092,36.46,1637342670.296875
3093,36.44,1637342670.3125
3094,36.44,1637342670.328125
3095,36.56,1637342670.34375
3096,36.85,1637342670.359375
3097,37.24,1637342670.375
3098,37.59,1637342670.390625
3099,37.7,1637342670.40625
3100,37.45,1637342670.421875
3101,36.74,1637342670.4375
3102,35.61,1637342670.453125
3103,34.12,1637342670.46875
3104,32.42,1637342670.484375
3105,30.62,1637342670.5
3106,28.86,1637342670.515625
3107,27.13,1637342670.53125
3108,25.33,1637342670.546875
3109,23.35,1637342670.5625
3110,21.11,1637342670.578125
3111,18.64,1637342670.59375
3112,16.11,1637342670.609375
3113,13.69,1637342670.625
3114,11.51,1637342670.640625
3115,9.54,1637342670.65625
3116,7.64,1637342670.671875
3117,5.64,1637342670.6875
3118,3.46,1637342670.703125
3119,1.1,1637342670.71875
3120,-1.29,1637342670.734375
3121,-3.53,1637342670.75
3122,-5.51,1637342670.765625
3123,-7.21,1637342670.78125
3124,-8.73,1637342670.796875
3125,-10.26,1637342670.8125
3126,-12.0,1637342670.828125
3127,-14.07,1637342670.84375
3128,-16.52,1637342670.859375
3129,-19.26,1637342670.875
3130,-22.18,1637342670.890625
3131,-25.19,1637342670.90625
3132,-28.17,1637342670.921875
3133,-31.09,1637342670.9375
3134,-33.96,1637342670.953125
3135,-36.77,1637342670.96875
3136,-39.56,1637342670.984375
3137,-42.43,1637342671.0
3138,-45.57,1637342671.015625
3139,-49.23,1637342671.03125
3140,-53.52,1637342671.046875
3141,-58.3,1637342671.0625
3142,-62.96,1637342671.078125
3143,-66.53,1637342671.09375
3144,-67.91,1637342671.109375
3145,-66.23,1637342671.125
3146,-61.17,1637342671.140625
3147,-53.17,1637342671.15625
3148,-43.27,1637342671.171875
3149,-32.79,1637342671.1875
3150,-22.97,1637342671.203125
3151,-14.66,1637342671.21875
3152,-8.2,1637342671.234375
3153,-3.45,1637342671.25
3154,-0.02,1637342671.265625
3155,2.56,1637342671.28125
3156,4.82,1637342671.296875
3157,7.18,1637342671.3125
3158,9.99,1637342671.328125
3159,13.43,1637342671.34375
3160,17.45,1637342671.359375
3161,21.77,1637342671.375
3162,25.94,1637342671.390625
3163,29.41,1637342671.40625
3164,31.82,1637342671.421875
3165,33.05,1637342671.4375
3166,33.32,1637342671.453125
3167,33.08,1637342671.46875
3168,32.8,1637342671.484375
3169,32.84,1637342671.5
3170,33.27,1637342671.515625
3171,33.96,1637342671.53125
3172,34.64,1637342671.546875
3173,35.06,1637342671.5625
3174,35.06,1637342671.578125
3175,34.59,1637342671.59375
3176,33.72,1637342671.609375
3177,32.54,1637342671.625
3178,31.12,1637342671.640625
3179,29.52,1637342671.65625
3180,27.8,1637342671.671875
3181,26.05,1637342671.6875
3182,24.33,1637342671.703125
3183,22.69,1637342671.71875
3184,21.11,1637342671.734375
3185,19.53,1637342671.75
3186,17.92,1637342671.765625
3187,16.27,1637342671.78125
3188,14.67,1637342671.796875
3189,13.22,1637342671.8125
3190,12.02,1637342671.828125
3191,11.1,1637342671.84375
3192,10.36,1637342671.859375
3193,9.64,1637342671.875
3194,8.75,1637342671.890625
3195,7.56,1637342671.90625
3196,5.99,1637342671.921875
3197,4.09,1637342671.9375
3198,1.95,1637342671.953125
3199,-0.27,1637342671.96875
3200,-2.41,1637342671.984375
3201,-4.43,1637342672.0
3202,-6.3,1637342672.015625
3203,-8.11,1637342672.03125
3204,-10.03,1637342672.046875
3205,-12.18,1637342672.0625
3206,-14.63,1637342672.078125
3207,-17.36,1637342672.09375
3208,-20.23,1637342672.109375
3209,-23.04,1637342672.125
3210,-25.65,1637342672.140625
3211,-27.97,1637342672.15625
3212,-30.06,1637342672.171875
3213,-32.07,1637342672.1875
3214,-34.24,1637342672.203125
3215,-36.81,1637342672.21875
3216,-40.03,1637342672.234375
3217,-43.94,1637342672.25
3218,-48.34,1637342672.265625
3219,-52.73,1637342672.28125
3220,-56.25,1637342672.296875
3221,-58.0,1637342672.3125
3222,-57.2,1637342672.328125
3223,-53.49,1637342672.34375
3224,-47.09,1637342672.359375
3225,-38.76,1637342672.375
3226,-29.58,1637342672.390625
3227,-20.65,1637342672.40625
3228,-12.82,1637342672.421875
3229,-6.54,1637342672.4375
3230,-1.85,1637342672.453125
3231,1.5,1637342672.46875
3232,3.95,1637342672.484375
3233,5.91,1637342672.5
3234,7.8,1637342672.515625
3235,9.93,1637342672.53125
3236,12.5,1637342672.546875
3237,15.51,1637342672.5625
3238,18.81,1637342672.578125
3239,22.11,1637342672.59375
3240,25.03,1637342672.609375
3241,27.24,1637342672.625
3242,28.54,1637342672.640625
3243,28.95,1637342672.65625
3244,28.65,1637342672.671875
3245,27.93,1637342672.6875
3246,27.12,1637342672.703125
3247,26.46,1637342672.71875
3248,26.16,1637342672.734375
3249,26.27,1637342672.75
3250,26.8,1637342672.765625
3251,27.61,1637342672.78125
3252,28.46,1637342672.796875
3253,29.1,1637342672.8125
3254,29.26,1637342672.828125
3255,28.83,1637342672.84375
3256,27.88,1637342672.859375
3257,26.65,1637342672.875
3258,25.46,1637342672.890625
3259,24.53,1637342672.90625
3260,23.89,1637342672.921875
3261,23.4,1637342672.9375
3262,22.77,1637342672.953125
3263,21.76,1637342672.96875
3264,20.26,1637342672.984375
3265,18.29,1637342673.0
3266,15.93,1637342673.015625
3267,13.32,1637342673.03125
3268,10.59,1637342673.046875
3269,7.9,1637342673.0625
3270,5.46,1637342673.078125
3271,3.4,1637342673.09375
3272,1.76,1637342673.109375
3273,0.36,1637342673.125
3274,-1.13,1637342673.140625
3275,-3.04,1637342673.15625
3276,-5.52,1637342673.171875
3277,-8.46,1637342673.1875
3278,-11.51,1637342673.203125
3279,-14.29,1637342673.21875
3280,-16.57,1637342673.234375
3281,-18.42,1637342673.25
3282,-20.1,1637342673.265625
3283,-22.02,1637342673.28125
3284,-24.52,1637342673.296875
3285,-27.86,1637342673.3125
3286,-32.09,1637342673.328125
3287,-37.1,1637342673.34375
3288,-42.54,1637342673.359375
3289,-47.78,1637342673.375
3290,-51.88,1637342673.390625
3291,-53.81,1637342673.40625
3292,-52.72,1637342673.421875
3293,-48.33,1637342673.4375
3294,-41.02,1637342673.453125
3295,-31.83,1637342673.46875
3296,-22.1,1637342673.484375
3297,-13.07,1637342673.5
3298,-5.57,1637342673.515625
3299,0.12,1637342673.53125
3300,4.15,1637342673.546875
3301,6.89,1637342673.5625
3302,8.81,1637342673.578125
3303,10.25,1637342673.59375
3304,11.54,1637342673.609375
3305,12.92,1637342673.625
3306,14.6,1637342673.640625
3307,16.66,1637342673.65625
3308,18.96,1637342673.671875
3309,21.2,1637342673.6875
3310,22.99,1637342673.703125
3311,24.02,1637342673.71875
3312,24.23,1637342673.734375
3313,23.81,1637342673.75
3314,23.16,1637342673.765625
3315,22.71,1637342673.78125
3316,22.72,1637342673.796875
3317,23.21,1637342673.8125
3318,23.94,1637342673.828125
3319,24.6,1637342673.84375
3320,24.92,1637342673.859375
3321,24.77,1637342673.875
3322,24.23,1637342673.890625
3323,23.42,1637342673.90625
3324,22.51,1637342673.921875
3325,21.56,1637342673.9375
3326,20.56,1637342673.953125
3327,19.41,1637342673.96875
3328,18.06,1637342673.984375
3329,16.54,1637342674.0
3330,14.97,1637342674.015625
3331,13.53,1637342674.03125
3332,12.36,1637342674.046875
3333,11.5,1637342674.0625
3334,10.89,1637342674.078125
3335,10.39,1637342674.09375
3336,9.86,1637342674.109375
3337,9.22,1637342674.125
3338,8.44,1637342674.140625
3339,7.44,1637342674.15625
3340,6.12,1637342674.171875
3341,4.33,1637342674.1875
3342,2.06,1637342674.203125
3343,-0.59,1637342674.21875
3344,-3.29,1637342674.234375
3345,-5.62,1637342674.25
3346,-7.25,1637342674.265625
3347,-8.14,1637342674.28125
3348,-8.54,1637342674.296875
3349,-8.86,1637342674.3125
3350,-9.55,1637342674.328125
3351,-10.85,1637342674.34375
3352,-12.7,1637342674.359375
3353,-14.85,1637342674.375
3354,-16.99,1637342674.390625
3355,-18.92,1637342674.40625
3356,-20.62,1637342674.421875
3357,-22.24,1637342674.4375
3358,-24.08,1637342674.453125
3359,-26.45,1637342674.46875
3360,-29.64,1637342674.484375
3361,-33.71,1637342674.5
3362,-38.5,1637342674.515625
3363,-43.52,1637342674.53125
3364,-47.89,1637342674.546875
3365,-50.63,1637342674.5625
3366,-50.9,1637342674.578125
3367,-48.25,1637342674.59375
3368,-42.81,1637342674.609375
3369,-35.23,1637342674.625
3370,-26.53,1637342674.640625
3371,-17.8,1637342674.65625
3372,-9.95,1637342674.671875
3373,-3.55,1637342674.6875
3374,1.17,1637342674.703125
3375,4.3,1637342674.71875
3376,6.18,1637342674.734375
3377,7.27,1637342674.75
3378,8.11,1637342674.765625
3379,9.23,1637342674.78125
3380,10.96,1637342674.796875
3381,13.41,1637342674.8125
3382,16.4,1637342674.828125
3383,19.53,1637342674.84375
3384,22.31,1637342674.859375
3385,24.34,1637342674.875
3386,25.44,1637342674.890625
3387,25.61,1637342674.90625
3388,25.06,1637342674.921875
3389,24.05,1637342674.9375
3390,22.84,1637342674.953125
3391,21.68,1637342674.96875
3392,20.76,1637342674.984375
3393,20.23,1637342675.0
3394,20.14,1637342675.015625
3395,20.36,1637342675.03125
3396,20.59,1637342675.046875
3397,20.54,1637342675.0625
3398,20.0,1637342675.078125
3399,19.0,1637342675.09375
3400,17.77,1637342675.109375
3401,16.65,1637342675.125
3402,15.85,1637342675.140625
3403,15.31,1637342675.15625
3404,14.86,1637342675.171875
3405,14.32,1637342675.1875
3406,13.63,1637342675.203125
3407,12.94,1637342675.21875
3408,12.45,1637342675.234375
3409,12.29,1637342675.25
3410,12.39,1637342675.265625
3411,12.46,1637342675.28125
3412,12.19,1637342675.296875
3413,11.33,1637342675.3125
3414,9.85,1637342675.328125
3415,7.94,1637342675.34375
3416,5.9,1637342675.359375
3417,4.09,1637342675.375
3418,2.79,1637342675.390625
3419,2.08,1637342675.40625
3420,1.88,1637342675.421875
3421,1.9,1637342675.4375
3422,1.77,1637342675.453125
3423,1.16,1637342675.46875
3424,-0.08,1637342675.484375
3425,-1.87,1637342675.5
3426,-3.99,1637342675.515625
3427,-6.2,1637342675.53125
3428,-8.3,1637342675.546875
3429,-10.28,1637342675.5625
3430,-12.21,1637342675.578125
3431,-14.2,1637342675.59375
3432,-16.29,1637342675.609375
3433,-18.47,1637342675.625
3434,-20.69,1637342675.640625
3435,-22.89,1637342675.65625
3436,-25.05,1637342675.671875
3437,-27.16,1637342675.6875
3438,-29.3,1637342675.703125
3439,-31.59,1637342675.71875
3440,-34.2,1637342675.734375
3441,-37.21,1637342675.75
3442,-40.66,1637342675.765625
3443,-44.31,1637342675.78125
3444,-47.66,1637342675.796875
3445,-49.93,1637342675.8125
3446,-50.28,1637342675.828125
3447,-48.04,1637342675.84375
3448,-42.99,1637342675.859375
3449,-35.46,1637342675.875
3450,-26.31,1637342675.890625
3451,-16.72,1637342675.90625
3452,-7.83,1637342675.921875
3453,-0.51,1637342675.9375
3454,4.86,1637342675.953125
3455,8.32,1637342675.96875
3456,10.27,1637342675.984375
3457,11.22,1637342676.0
3458,11.69,1637342676.015625
3459,12.06,1637342676.03125
3460,12.64,1637342676.046875
3461,13.5,1637342676.0625
3462,14.57,1637342676.078125
3463,15.64,1637342676.09375
3464,16.49,1637342676.109375
3465,16.9,1637342676.125
3466,16.83,1637342676.140625
3467,16.37,1637342676.15625
3468,15.76,1637342676.171875
3469,15.29,1637342676.1875
3470,15.17,1637342676.203125
3471,15.49,1637342676.21875
3472,16.21,1637342676.234375
3473,17.16,1637342676.25
3474,18.17,1637342676.265625
3475,19.11,1637342676.28125
3476,19.9,1637342676.296875
3477,20.46,1637342676.3125
3478,20.72,1637342676.328125
3479,20.56,1637342676.34375
3480,19.89,1637342676.359375
3481,18.7,1637342676.375
3482,17.11,1637342676.390625
3483,15.33,1637342676.40625
3484,13.63,1637342676.421875
3485,12.17,1637342676.4375
3486,11.04,1637342676.453125
3487,10.24,1637342676.46875
3488,9.66,1637342676.484375
3489,9.21,1637342676.5
3490,8.78,1637342676.515625
3491,8.26,1637342676.53125
3492,7.62,1637342676.546875
3493,6.86,1637342676.5625
3494,6.07,1637342676.578125
3495,5.35,1637342676.59375
3496,4.79,1637342676.609375
3497,4.35,1637342676.625
3498,3.88,1637342676.640625
3499,3.17,1637342676.65625
3500,2.1,1637342676.671875
3501,0.71,1637342676.6875
3502,-0.82,1637342676.703125
3503,-2.24,1637342676.71875
3504,-3.44,1637342676.734375
3505,-4.42,1637342676.75
3506,-5.35,1637342676.765625
3507,-6.44,1637342676.78125
3508,-7.89,1637342676.796875
3509,-9.74,1637342676.8125
3510,-11.97,1637342676.828125
3511,-14.42,1637342676.84375
3512,-16.87,1637342676.859375
3513,-19.05,1637342676.875
3514,-20.78,1637342676.890625
3515,-22.09,1637342676.90625
3516,-23.22,1637342676.921875
3517,-24.65,1637342676.9375
3518,-26.87,1637342676.953125
3519,-30.13,1637342676.96875
3520,-34.21,1637342676.984375
3521,-38.47,1637342677.0
3522,-42.0,1637342677.015625
3523,-43.87,1637342677.03125
3524,-43.45,1637342677.046875
3525,-40.52,1637342677.0625
3526,-35.36,1637342677.078125
3527,-28.55,1637342677.09375
3528,-20.96,1637342677.109375
3529,-13.45,1637342677.125
3530,-6.79,1637342677.140625
3531,-1.51,1637342677.15625
3532,2.21,1637342677.171875
3533,4.51,1637342677.1875
3534,5.79,1637342677.203125
3535,6.57,1637342677.21875
3536,7.26,1637342677.234375
3537,8.18,1637342677.25
3538,9.39,1637342677.265625
3539,10.87,1637342677.28125
3540,12.48,1637342677.296875
3541,14.03,1637342677.3125
3542,15.35,1637342677.328125
3543,16.27,1637342677.34375
3544,16.65,1637342677.359375
3545,16.5,1637342677.375
3546,15.91,1637342677.390625
3547,15.1,1637342677.40625
3548,14.34,1637342677.421875
3549,13.92,1637342677.4375
3550,13.97,1637342677.453125
3551,14.52,1637342677.46875
3552,15.43,1637342677.484375
3553,16.42,1637342677.5
3554,17.2,1637342677.515625
3555,17.53,1637342677.53125
3556,17.34,1637342677.546875
3557,16.65,1637342677.5625
3558,15.59,1637342677.578125
3559,14.38,1637342677.59375
3560,13.21,1637342677.609375
3561,12.19,1637342677.625
3562,11.38,1637342677.640625
3563,10.82,1637342677.65625
3564,10.43,1637342677.671875
3565,10.19,1637342677.6875
3566,9.98,1637342677.703125
3567,9.7,1637342677.71875
3568,9.21,1637342677.734375
3569,8.39,1637342677.75
3570,7.25,1637342677.765625
3571,5.89,1637342677.78125
3572,4.52,1637342677.796875
3573,3.33,1637342677.8125
3574,2.44,1637342677.828125
3575,1.75,1637342677.84375
3576,1.06,1637342677.859375
3577,0.16,1637342677.875
3578,-1.09,1637342677.890625
3579,-2.62,1637342677.90625
3580,-4.28,1637342677.921875
3581,-5.87,1637342677.9375
3582,-7.32,1637342677.953125
3583,-8.61,1637342677.96875
3584,-9.85,1637342677.984375
3585,-11.15,1637342678.0
3586,-12.54,1637342678.015625
3587,-14.07,1637342678.03125
3588,-15.72,1637342678.046875
3589,-17.49,1637342678.0625
3590,-19.34,1637342678.078125
3591,-21.22,1637342678.09375
3592,-22.99,1637342678.109375
3593,-24.62,1637342678.125
3594,-26.16,1637342678.140625
3595,-27.8,1637342678.15625
3596,-29.87,1637342678.171875
3597,-32.61,1637342678.1875
3598,-35.97,1637342678.203125
3599,-39.56,1637342678.21875
3600,-42.63,1637342678.234375
3601,-44.28,1637342678.25
3602,-43.84,1637342678.265625
3603,-41.04,1637342678.28125
3604,-36.12,1637342678.296875
3605,-29.79,1637342678.3125
3606,-22.95,1637342678.328125
3607,-16.47,1637342678.34375
3608,-10.96,1637342678.359375
3609,-6.75,1637342678.375
3610,-3.79,1637342678.390625
3611,-1.85,1637342678.40625
3612,-0.53,1637342678.421875
3613,0.6,1637342678.4375
3614,1.88,1637342678.453125
3615,3.55,1637342678.46875
3616,5.7,1637342678.484375
3617,8.26,1637342678.5
3618,11.01,1637342678.515625
3619,13.74,1637342678.53125
3620,16.15,1637342678.546875
3621,18.03,1637342678.5625
3622,19.25,1637342678.578125
3623,19.79,1637342678.59375
3624,19.76,1637342678.609375
3625,19.37,1637342678.625
3626,18.89,1637342678.640625
3627,18.57,1637342678.65625
3628,18.56,1637342678.671875
3629,18.89,1637342678.6875
3630,19.45,1637342678.703125
3631,20.06,1637342678.71875
3632,20.53,1637342678.734375
3633,20.75,1637342678.75
3634,20.7,1637342678.765625
3635,20.36,1637342678.78125
3636,19.76,1637342678.796875
3637,18.88,1637342678.8125
3638,17.77,1637342678.828125
3639,16.51,1637342678.84375
3640,15.3,1637342678.859375
3641,14.3,1637342678.875
3642,13.66,1637342678.890625
3643,13.35,1637342678.90625
3644,13.22,1637342678.921875
3645,13.07,1637342678.9375
3646,12.72,1637342678.953125
3647,12.14,1637342678.96875
3648,11.38,1637342678.984375
3649,10.54,1637342679.0
3650,9.65,1637342679.015625
3651,8.69,1637342679.03125
3652,7.53,1637342679.046875
3653,6.05,1637342679.0625
3654,4.19,1637342679.078125
3655,2.08,1637342679.09375
3656,-0.05,1637342679.109375
3657,-1.95,1637342679.125
3658,-3.44,1637342679.140625
3659,-4.55,1637342679.15625
3660,-5.54,1637342679.171875
3661,-6.74,1637342679.1875
3662,-8.42,1637342679.203125
3663,-10.62,1637342679.21875
3664,-13.17,1637342679.234375
3665,-15.74,1637342679.25
3666,-18.04,1637342679.265625
3667,-19.9,1637342679.28125
3668,-21.41,1637342679.296875
3669,-22.79,1637342679.3125
3670,-24.38,1637342679.328125
3671,-26.46,1637342679.34375
3672,-29.22,1637342679.359375
3673,-32.69,1637342679.375
3674,-36.67,1637342679.390625
3675,-40.72,1637342679.40625
3676,-44.15,1637342679.421875
3677,-46.14,1637342679.4375
3678,-45.95,1637342679.453125
3679,-43.17,1637342679.46875
3680,-37.97,1637342679.484375
3681,-31.0,1637342679.5
3682,-23.34,1637342679.515625
3683,-16.08,1637342679.53125
3684,-9.98,1637342679.546875
3685,-5.36,1637342679.5625
3686,-2.08,1637342679.578125
3687,0.21,1637342679.59375
3688,1.9,1637342679.609375
3689,3.31,1637342679.625
3690,4.62,1637342679.640625
3691,6.02,1637342679.65625
3692,7.69,1637342679.671875
3693,9.8,1637342679.6875
3694,12.37,1637342679.703125
3695,15.21,1637342679.71875
3696,17.95,1637342679.734375
3697,20.13,1637342679.75
3698,21.45,1637342679.765625
3699,21.86,1637342679.78125
3700,21.6,1637342679.796875
3701,21.06,1637342679.8125
3702,20.57,1637342679.828125
3703,20.36,1637342679.84375
3704,20.41,1637342679.859375
3705,20.59,1637342679.875
3706,20.83,1637342679.890625
3707,21.07,1637342679.90625
3708,21.34,1637342679.921875
3709,21.65,1637342679.9375
3710,21.92,1637342679.953125
3711,22.05,1637342679.96875
3712,21.98,1637342679.984375
3713,21.74,1637342680.0
3714,21.44,1637342680.015625
3715,21.18,1637342680.03125
3716,20.95,1637342680.046875
3717,20.6,1637342680.0625
3718,19.98,1637342680.078125
3719,18.94,1637342680.09375
3720,17.5,1637342680.109375
3721,15.83,1637342680.125
3722,14.14,1637342680.140625
3723,12.61,1637342680.15625
3724,11.32,1637342680.171875
3725,10.23,1637342680.1875
3726,9.21,1637342680.203125
3727,8.08,1637342680.21875
3728,6.71,1637342680.234375
3729,5.13,1637342680.25
3730,3.49,1637342680.265625
3731,2.01,1637342680.28125
3732,0.9,1637342680.296875
3733,0.21,1637342680.3125
3734,-0.21,1637342680.328125
3735,-0.63,1637342680.34375
3736,-1.29,1637342680.359375
3737,-2.36,1637342680.375
3738,-3.83,1637342680.390625
3739,-5.58,1637342680.40625
3740,-7.52,1637342680.421875
3741,-9.56,1637342680.4375
3742,-11.71,1637342680.453125
3743,-13.95,1637342680.46875
3744,-16.24,1637342680.484375
3745,-18.53,1637342680.5
3746,-20.87,1637342680.515625
3747,-23.33,1637342680.53125
3748,-26.17,1637342680.546875
3749,-29.57,1637342680.5625
3750,-33.64,1637342680.578125
3751,-38.16,1637342680.59375
3752,-42.66,1637342680.609375
3753,-46.37,1637342680.625
3754,-48.52,1637342680.640625
3755,-48.48,1637342680.65625
3756,-46.04,1637342680.671875
3757,-41.4,1637342680.6875
3758,-35.14,1637342680.703125
3759,-28.03,1637342680.71875
3760,-20.82,1637342680.734375
3761,-14.15,1637342680.75
3762,-8.43,1637342680.765625
3763,-3.91,1637342680.78125
3764,-0.61,1637342680.796875
3765,1.59,1637342680.8125
3766,3.01,1637342680.828125
3767,4.07,1637342680.84375
3768,5.28,1637342680.859375
3769,7.03,1637342680.875
3770,9.47,1637342680.890625
3771,12.48,1637342680.90625
3772,15.64,1637342680.921875
3773,18.47,1637342680.9375
3774,20.59,1637342680.953125
3775,21.81,1637342680.96875
3776,22.25,1637342680.984375
3777,22.15,1637342681.0
3778,21.84,1637342681.015625
3779,21.52,1637342681.03125
3780,21.29,1637342681.046875
3781,21.18,1637342681.0625
3782,21.2,1637342681.078125
3783,21.43,1637342681.09375
3784,21.99,1637342681.109375
3785,22.99,1637342681.125
3786,24.37,1637342681.140625
3787,25.9,1637342681.15625
3788,27.23,1637342681.171875
3789,28.03,1637342681.1875
3790,28.13,1637342681.203125
3791,27.54,1637342681.21875
3792,26.46,1637342681.234375
3793,25.11,1637342681.25
3794,23.68,1637342681.265625
3795,22.22,1637342681.28125
3796,20.76,1637342681.296875
3797,19.35,1637342681.3125
3798,18.04,1637342681.328125
3799,16.85,1637342681.34375
3800,15.68,1637342681.359375
3801,14.41,1637342681.375
3802,12.85,1637342681.390625
3803,10.98,1637342681.40625
3804,8.96,1637342681.421875
3805,7.02,1637342681.4375
3806,5.36,1637342681.453125
3807,4.08,1637342681.46875
3808,3.04,1637342681.484375
3809,2.02,1637342681.5
3810,0.84,1637342681.515625
3811,-0.57,1637342681.53125
3812,-2.13,1637342681.546875
3813,-3.67,1637342681.5625
3814,-5.02,1637342681.578125
3815,-6.05,1637342681.59375
3816,-6.74,1637342681.609375
3817,-7.14,1637342681.625
3818,-7.46,1637342681.640625
3819,-7.93,1637342681.65625
3820,-8.86,1637342681.671875
3821,-10.41,1637342681.6875
3822,-12.6,1637342681.703125
3823,-15.22,1637342681.71875
3824,-17.96,1637342681.734375
3825,-20.54,1637342681.75
3826,-22.9,1637342681.765625
3827,-25.25,1637342681.78125
3828,-28.0,1637342681.796875
3829,-31.53,1637342681.8125
3830,-35.95,1637342681.828125
3831,-40.94,1637342681.84375
3832,-45.79,1637342681.859375
3833,-49.51,1637342681.875
3834,-51.22,1637342681.890625
3835,-50.38,1637342681.90625
3836,-46.97,1637342681.921875
3837,-41.36,1637342681.9375
3838,-34.32,1637342681.953125
3839,-26.66,1637342681.96875
3840,-19.14,1637342681.984375
3841,-12.36,1637342682.0
3842,-6.68,1637342682.015625
3843,-2.3,1637342682.03125
3844,0.81,1637342682.046875
3845,2.82,1637342682.0625
3846,4.16,1637342682.078125
3847,5.27,1637342682.09375
3848,6.64,1637342682.109375
3849,8.6,1637342682.125
3850,11.23,1637342682.140625
3851,14.36,1637342682.15625
3852,17.63,1637342682.171875
3853,20.6,1637342682.1875
3854,22.92,1637342682.203125
3855,24.44,1637342682.21875
3856,25.2,1637342682.234375
3857,25.39,1637342682.25
3858,25.21,1637342682.265625
3859,24.86,1637342682.28125
3860,24.45,1637342682.296875
3861,24.08,1637342682.3125
3862,23.84,1637342682.328125
3863,23.78,1637342682.34375
3864,23.93,1637342682.359375
3865,24.22,1637342682.375
3866,24.51,1637342682.390625
3867,24.65,1637342682.40625
3868,24.53,1637342682.421875
3869,24.15,1637342682.4375
3870,23.6,1637342682.453125
3871,22.95,1637342682.46875
3872,22.22,1637342682.484375
3873,21.32,1637342682.5
3874,20.13,1637342682.515625
3875,18.57,1637342682.53125
3876,16.7,1637342682.546875
3877,14.76,1637342682.5625
3878,13.01,1637342682.578125
3879,11.68,1637342682.59375
3880,10.76,1637342682.609375
3881,10.08,1637342682.625
3882,9.34,1637342682.640625
3883,8.22,1637342682.65625
3884,6.64,1637342682.671875
3885,4.74,1637342682.6875
3886,2.83,1637342682.703125
3887,1.27,1637342682.71875
3888,0.24,1637342682.734375
3889,-0.34,1637342682.75
3890,-0.79,1637342682.765625
3891,-1.57,1637342682.78125
3892,-2.96,1637342682.796875
3893,-5.05,1637342682.8125
3894,-7.62,1637342682.828125
3895,-10.32,1637342682.84375
3896,-12.86,1637342682.859375
3897,-15.04,1637342682.875
3898,-16.97,1637342682.890625
3899,-18.86,1637342682.90625
3900,-21.07,1637342682.921875
3901,-23.92,1637342682.9375
3902,-27.6,1637342682.953125
3903,-32.05,1637342682.96875
3904,-36.86,1637342682.984375
3905,-41.33,1637342683.0
3906,-44.54,1637342683.015625
3907,-45.66,1637342683.03125
3908,-44.21,1637342683.046875
3909,-40.27,1637342683.0625
3910,-34.49,1637342683.078125
3911,-27.84,1637342683.09375
3912,-21.31,1637342683.109375
3913,-15.57,1637342683.125
3914,-10.85,1637342683.140625
3915,-7.06,1637342683.15625
3916,-3.92,1637342683.171875
3917,-1.21,1637342683.1875
3918,1.28,1637342683.203125
3919,3.61,1637342683.21875
3920,5.93,1637342683.234375
3921,8.34,1637342683.25
3922,10.95,1637342683.265625
3923,13.73,1637342683.28125
3924,16.51,1637342683.296875
3925,19.03,1637342683.3125
3926,21.0,1637342683.328125
3927,22.3,1637342683.34375
3928,22.96,1637342683.359375
3929,23.21,1637342683.375
3930,23.26,1637342683.390625
3931,23.33,1637342683.40625
3932,23.5,1637342683.421875
3933,23.76,1637342683.4375
3934,24.08,1637342683.453125
3935,24.42,1637342683.46875
3936,24.79,1637342683.484375
3937,25.15,1637342683.5
3938,25.49,1637342683.515625
3939,25.71,1637342683.53125
3940,25.74,1637342683.546875
3941,25.54,1637342683.5625
3942,25.06,1637342683.578125
3943,24.37,1637342683.59375
3944,23.49,1637342683.609375
3945,22.41,1637342683.625
3946,21.09,1637342683.640625
3947,19.49,1637342683.65625
3948,17.63,1637342683.671875
3949,15.59,1637342683.6875
3950,13.58,1637342683.703125
3951,11.77,1637342683.71875
3952,10.29,1637342683.734375
3953,9.15,1637342683.75
3954,8.21,1637342683.765625
3955,7.29,1637342683.78125
3956,6.2,1637342683.796875
3957,4.84,1637342683.8125
3958,3.22,1637342683.828125
3959,1.46,1637342683.84375
3960,-0.3,1637342683.859375
3961,-1.89,1637342683.875
3962,-3.21,1637342683.890625
3963,-4.24,1637342683.90625
3964,-5.07,1637342683.921875
3965,-5.88,1637342683.9375
3966,-6.88,1637342683.953125
3967,-8.31,1637342683.96875
3968,-10.26,1637342683.984375
3969,-12.75,1637342684.0
3970,-15.63,1637342684.015625
3971,-18.64,1637342684.03125
3972,-21.52,1637342684.046875
3973,-24.13,1637342684.0625
3974,-26.46,1637342684.078125
3975,-28.69,1637342684.09375
3976,-31.11,1637342684.109375
3977,-33.97,1637342684.125
3978,-37.4,1637342684.140625
3979,-41.2,1637342684.15625
3980,-44.87,1637342684.171875
3981,-47.71,1637342684.1875
3982,-48.93,1637342684.203125
3983,-47.87,1637342684.21875
3984,-44.32,1637342684.234375
3985,-38.52,1637342684.25
3986,-31.15,1637342684.265625
3987,-23.19,1637342684.28125
3988,-15.63,1637342684.296875
3989,-9.23,1637342684.3125
3990,-4.37,1637342684.328125
3991,-1.05,1637342684.34375
3992,1.04,1637342684.359375
3993,2.35,1637342684.375
3994,3.33,1637342684.390625
3995,4.3,1637342684.40625
3996,5.51,1637342684.421875
3997,7.07,1637342684.4375
3998,9.02,1637342684.453125
3999,11.36,1637342684.46875
4000,13.9,1637342684.484375
4001,16.41,1637342684.5
4002,18.58,1637342684.515625
4003,20.21,1637342684.53125
4004,21.28,1637342684.546875
4005,21.99,1637342684.5625
4006,22.57,1637342684.578125
4007,23.22,1637342684.59375
4008,23.98,1637342684.609375
4009,24.66,1637342684.625
4010,25.11,1637342684.640625
4011,25.23,1637342684.65625
4012,25.05,1637342684.671875
4013,24.71,1637342684.6875
4014,24.3,1637342684.703125
4015,23.85,1637342684.71875
4016,23.32,1637342684.734375
4017,22.67,1637342684.75
4018,21.94,1637342684.765625
4019,21.28,1637342684.78125
4020,20.8,1637342684.796875
4021,20.52,1637342684.8125
4022,20.32,1637342684.828125
4023,19.97,1637342684.84375
4024,19.23,1637342684.859375
4025,17.99,1637342684.875
4026,16.29,1637342684.890625
4027,14.3,1637342684.90625
4028,12.28,1637342684.921875
4029,10.47,1637342684.9375
4030,8.99,1637342684.953125
4031,7.79,1637342684.96875
4032,6.71,1637342684.984375
4033,5.57,1637342685.0
4034,4.25,1637342685.015625
4035,2.74,1637342685.03125
4036,1.16,1637342685.046875
4037,-0.35,1637342685.0625
4038,-1.72,1637342685.078125
4039,-2.95,1637342685.09375
4040,-4.24,1637342685.109375
4041,-5.76,1637342685.125
4042,-7.7,1637342685.140625
4043,-10.09,1637342685.15625
4044,-12.84,1637342685.171875
4045,-15.72,1637342685.1875
4046,-18.48,1637342685.203125
4047,-20.88,1637342685.21875
4048,-22.79,1637342685.234375
4049,-24.28,1637342685.25
4050,-25.53,1637342685.265625
4051,-26.92,1637342685.28125
4052,-28.84,1637342685.296875
4053,-31.6,1637342685.3125
4054,-35.26,1637342685.328125
4055,-39.5,1637342685.34375
4056,-43.75,1637342685.359375
4057,-47.18,1637342685.375
4058,-49.0,1637342685.390625
4059,-48.63,1637342685.40625
4060,-45.87,1637342685.421875
4061,-40.95,1637342685.4375
4062,-34.47,1637342685.453125
4063,-27.18,1637342685.46875
4064,-19.91,1637342685.484375
4065,-13.34,1637342685.5
4066,-7.91,1637342685.515625
4067,-3.74,1637342685.53125
4068,-0.71,1637342685.546875
4069,1.5,1637342685.5625
4070,3.25,1637342685.578125
4071,4.88,1637342685.59375
4072,6.63,1637342685.609375
4073,8.66,1637342685.625
4074,11.01,1637342685.640625
4075,13.59,1637342685.65625
4076,16.2,1637342685.671875
4077,18.52,1637342685.6875
4078,20.24,1637342685.703125
4079,21.11,1637342685.71875
4080,21.14,1637342685.734375
4081,20.56,1637342685.75
4082,19.75,1637342685.765625
4083,19.13,1637342685.78125
4084,18.95,1637342685.796875
4085,19.36,1637342685.8125
4086,20.28,1637342685.828125
4087,21.58,1637342685.84375
4088,23.08,1637342685.859375
4089,24.56,1637342685.875
4090,25.77,1637342685.890625
4091,26.47,1637342685.90625
4092,26.55,1637342685.921875
4093,26.07,1637342685.9375
4094,25.25,1637342685.953125
4095,24.36,1637342685.96875
4096,23.59,1637342685.984375
4097,22.91,1637342686.0
4098,22.14,1637342686.015625
4099,21.05,1637342686.03125
4100,19.49,1637342686.046875
4101,17.58,1637342686.0625
4102,15.59,1637342686.078125
4103,13.77,1637342686.09375
4104,12.26,1637342686.109375
4105,10.99,1637342686.125
4106,9.7,1637342686.140625
4107,8.12,1637342686.15625
4108,6.14,1637342686.171875
4109,3.8,1637342686.1875
4110,1.37,1637342686.203125
4111,-0.86,1637342686.21875
4112,-2.67,1637342686.234375
4113,-4.03,1637342686.25
4114,-5.08,1637342686.265625
4115,-6.05,1637342686.28125
4116,-7.14,1637342686.296875
4117,-8.47,1637342686.3125
4118,-10.06,1637342686.328125
4119,-11.83,1637342686.34375
4120,-13.8,1637342686.359375
4121,-15.95,1637342686.375
4122,-18.38,1637342686.390625
4123,-21.1,1637342686.40625
4124,-24.08,1637342686.421875
4125,-27.28,1637342686.4375
4126,-30.67,1637342686.453125
4127,-34.23,1637342686.46875
4128,-37.97,1637342686.484375
4129,-41.74,1637342686.5
4130,-45.21,1637342686.515625
4131,-47.82,1637342686.53125
4132,-48.91,1637342686.546875
4133,-47.94,1637342686.5625
4134,-44.72,1637342686.578125
4135,-39.44,1637342686.59375
4136,-32.72,1637342686.609375
4137,-25.35,1637342686.625
4138,-18.12,1637342686.640625
4139,-11.59,1637342686.65625
4140,-6.14,1637342686.671875
4141,-1.84,1637342686.6875
4142,1.33,1637342686.703125
4143,3.58,1637342686.71875
4144,5.2,1637342686.734375
4145,6.57,1637342686.75
4146,8.1,1637342686.765625
4147,10.05,1637342686.78125
4148,12.48,1637342686.796875
4149,15.18,1637342686.8125
4150,17.78,1637342686.828125
4151,19.87,1637342686.84375
4152,21.16,1637342686.859375
4153,21.58,1637342686.875
4154,21.28,1637342686.890625
4155,20.6,1637342686.90625
4156,19.93,1637342686.921875
4157,19.6,1637342686.9375
4158,19.79,1637342686.953125
4159,20.53,1637342686.96875
4160,21.62,1637342686.984375
4161,22.74,1637342687.0
4162,23.61,1637342687.015625
4163,24.03,1637342687.03125
4164,24.02,1637342687.046875
4165,23.73,1637342687.0625
4166,23.39,1637342687.078125
4167,23.16,1637342687.09375
4168,23.07,1637342687.109375
4169,23.03,1637342687.125
4170,22.88,1637342687.140625
4171,22.43,1637342687.15625
4172,21.57,1637342687.171875
4173,20.28,1637342687.1875
4174,18.65,1637342687.203125
4175,16.86,1637342687.21875
4176,15.11,1637342687.234375
4177,13.59,1637342687.25
4178,12.38,1637342687.265625
4179,11.42,1637342687.28125
4180,10.56,1637342687.296875
4181,9.61,1637342687.3125
4182,8.42,1637342687.328125
4183,6.93,1637342687.34375
4184,5.23,1637342687.359375
4185,3.45,1637342687.375
4186,1.74,1637342687.390625
4187,0.19,1637342687.40625
4188,-1.25,1637342687.421875
4189,-2.67,1637342687.4375
4190,-4.22,1637342687.453125
4191,-6.01,1637342687.46875
4192,-8.05,1637342687.484375
4193,-10.29,1637342687.5
4194,-12.59,1637342687.515625
4195,-14.81,1637342687.53125
4196,-16.87,1637342687.546875
4197,-18.74,1637342687.5625
4198,-20.51,1637342687.578125
4199,-22.29,1637342687.59375
4200,-24.25,1637342687.609375
4201,-26.51,1637342687.625
4202,-29.19,1637342687.640625
4203,-32.38,1637342687.65625
4204,-36.13,1637342687.671875
4205,-40.35,1637342687.6875
4206,-44.8,1637342687.703125
4207,-48.89,1637342687.71875
4208,-51.8,1637342687.734375
4209,-52.67,1637342687.75
4210,-50.88,1637342687.765625
4211,-46.29,1637342687.78125
4212,-39.38,1637342687.796875
4213,-31.15,1637342687.8125
4214,-22.7,1637342687.828125
4215,-15.04,1637342687.84375
4216,-8.76,1637342687.859375
4217,-4.07,1637342687.875
4218,-0.87,1637342687.890625
4219,1.07,1637342687.90625
4220,2.15,1637342687.921875
4221,2.81,1637342687.9375
4222,3.58,1637342687.953125
4223,4.91,1637342687.96875
4224,7.03,1637342687.984375
4225,9.87,1637342688.0
4226,13.01,1637342688.015625
4227,15.95,1637342688.03125
4228,18.2,1637342688.046875
4229,19.56,1637342688.0625
4230,20.1,1637342688.078125
4231,20.09,1637342688.09375
4232,19.89,1637342688.109375
4233,19.79,1637342688.125
4234,19.93,1637342688.140625
4235,20.34,1637342688.15625
4236,20.98,1637342688.171875
4237,21.77,1637342688.1875
4238,22.68,1637342688.203125
4239,23.62,1637342688.21875
4240,24.5,1637342688.234375
4241,25.2,1637342688.25
4242,25.6,1637342688.265625
4243,25.62,1637342688.28125
4244,25.31,1637342688.296875
4245,24.76,1637342688.3125
4246,24.14,1637342688.328125
4247,23.52,1637342688.34375
4248,22.89,1637342688.359375
4249,22.12,1637342688.375
4250,21.1,1637342688.390625
4251,19.72,1637342688.40625
4252,18.08,1637342688.421875
4253,16.33,1637342688.4375
4254,14.61,1637342688.453125
4255,12.99,1637342688.46875
4256,11.45,1637342688.484375
4257,9.87,1637342688.5
4258,8.17,1637342688.515625
4259,6.34,1637342688.53125
4260,4.44,1637342688.546875
4261,2.61,1637342688.5625
4262,1.02,1637342688.578125
4263,-0.27,1637342688.59375
4264,-1.29,1637342688.609375
4265,-2.19,1637342688.625
4266,-3.21,1637342688.640625
4267,-4.58,1637342688.65625
4268,-6.43,1637342688.671875
4269,-8.73,1637342688.6875
4270,-11.27,1637342688.703125
4271,-13.8,1637342688.71875
4272,-16.13,1637342688.734375
4273,-18.22,1637342688.75
4274,-20.25,1637342688.765625
4275,-22.5,1637342688.78125
4276,-25.25,1637342688.796875
4277,-28.64,1637342688.8125
4278,-32.68,1637342688.828125
4279,-37.2,1637342688.84375
4280,-41.86,1637342688.859375
4281,-46.17,1637342688.875
4282,-49.5,1637342688.890625
4283,-51.15,1637342688.90625
4284,-50.5,1637342688.921875
4285,-47.26,1637342688.9375
4286,-41.64,1637342688.953125
4287,-34.32,1637342688.96875
4288,-26.34,1637342688.984375
4289,-18.73,1637342689.0
4290,-12.23,1637342689.015625
4291,-7.13,1637342689.03125
4292,-3.3,1637342689.046875
4293,-0.37,1637342689.0625
