,BVP,timestamp
1,-0.0,1638869478.0
2,-0.0,1638869478.015625
3,-0.0,1638869478.03125
4,-0.0,1638869478.046875
5,-0.0,1638869478.0625
6,-0.0,1638869478.078125
7,-0.0,1638869478.09375
8,-0.0,1638869478.109375
9,-0.0,1638869478.125
10,-0.0,1638869478.140625
11,0.0,1638869478.15625
12,0.01,1638869478.171875
13,0.01,1638869478.1875
14,-0.0,1638869478.203125
15,-0.03,1638869478.21875
16,-0.05,1638869478.234375
17,-0.05,1638869478.25
18,0.0,1638869478.265625
19,0.13,1638869478.28125
20,0.36,1638869478.296875
21,0.66,1638869478.3125
22,1.01,1638869478.328125
23,1.37,1638869478.34375
24,1.72,1638869478.359375
25,2.06,1638869478.375
26,2.4,1638869478.390625
27,2.79,1638869478.40625
28,3.24,1638869478.421875
29,3.8,1638869478.4375
30,4.42,1638869478.453125
31,5.06,1638869478.46875
32,5.66,1638869478.484375
33,6.2,1638869478.5
34,6.68,1638869478.515625
35,7.15,1638869478.53125
36,7.68,1638869478.546875
37,8.31,1638869478.5625
38,9.14,1638869478.578125
39,10.09,1638869478.59375
40,11.04,1638869478.609375
41,11.88,1638869478.625
42,12.56,1638869478.640625
43,13.14,1638869478.65625
44,13.76,1638869478.671875
45,14.65,1638869478.6875
46,15.96,1638869478.703125
47,17.91,1638869478.71875
48,20.32,1638869478.734375
49,22.9,1638869478.75
50,25.38,1638869478.765625
51,27.58,1638869478.78125
52,29.57,1638869478.796875
53,31.68,1638869478.8125
54,34.32,1638869478.828125
55,37.81,1638869478.84375
56,42.54,1638869478.859375
57,48.15,1638869478.875
58,54.1,1638869478.890625
59,59.83,1638869478.90625
60,64.97,1638869478.921875
61,69.58,1638869478.9375
62,74.14,1638869478.953125
63,79.34,1638869478.96875
64,85.71,1638869478.984375
65,93.76,1638869479.0
66,103.0,1638869479.015625
67,112.62,1638869479.03125
68,121.73,1638869479.046875
69,129.77,1638869479.0625
70,136.75,1638869479.078125
71,143.3,1638869479.09375
72,150.75,1638869479.109375
73,157.77,1638869479.125
74,166.64,1638869479.140625
75,177.95,1638869479.15625
76,191.79,1638869479.171875
77,206.97,1638869479.1875
78,220.57,1638869479.203125
79,228.25,1638869479.21875
80,225.36,1638869479.234375
81,208.53,1638869479.25
82,176.87,1638869479.265625
83,132.76,1638869479.28125
84,80.05,1638869479.296875
85,23.07,1638869479.3125
86,-34.94,1638869479.328125
87,-92.44,1638869479.34375
88,-149.16,1638869479.359375
89,-205.23,1638869479.375
90,-260.37,1638869479.390625
91,-313.74,1638869479.40625
92,-363.87,1638869479.421875
93,-409.83,1638869479.4375
94,-450.91,1638869479.453125
95,-486.5,1638869479.46875
96,-515.74,1638869479.484375
97,-537.23,1638869479.5
98,-549.22,1638869479.515625
99,-549.96,1638869479.53125
100,-538.37,1638869479.546875
101,-514.21,1638869479.5625
102,-478.67,1638869479.578125
103,-433.88,1638869479.59375
104,-382.45,1638869479.609375
105,-327.02,1638869479.625
106,-269.84,1638869479.640625
107,-212.63,1638869479.65625
108,-156.66,1638869479.671875
109,-102.94,1638869479.6875
110,-52.35,1638869479.703125
111,-5.87,1638869479.71875
112,35.63,1638869479.734375
113,71.5,1638869479.75
114,101.46,1638869479.765625
115,125.64,1638869479.78125
116,144.56,1638869479.796875
117,158.92,1638869479.8125
118,169.43,1638869479.828125
119,176.7,1638869479.84375
120,181.14,1638869479.859375
121,183.02,1638869479.875
122,182.58,1638869479.890625
123,180.08,1638869479.90625
124,175.87,1638869479.921875
125,170.35,1638869479.9375
126,163.94,1638869479.953125
127,156.98,1638869479.96875
128,149.72,1638869479.984375
129,142.3,1638869480.0
130,134.78,1638869480.015625
131,127.21,1638869480.03125
132,119.63,1638869480.046875
133,112.1,1638869480.0625
134,104.7,1638869480.078125
135,97.5,1638869480.09375
136,90.55,1638869480.109375
137,83.88,1638869480.125
138,77.5,1638869480.140625
139,71.44,1638869480.15625
140,65.7,1638869480.171875
141,60.28,1638869480.1875
142,55.2,1638869480.203125
143,50.48,1638869480.21875
144,46.11,1638869480.234375
145,42.09,1638869480.25
146,38.42,1638869480.265625
147,35.09,1638869480.28125
148,32.1,1638869480.296875
149,29.43,1638869480.3125
150,27.09,1638869480.328125
151,25.08,1638869480.34375
152,23.38,1638869480.359375
153,21.99,1638869480.375
154,20.9,1638869480.390625
155,20.11,1638869480.40625
156,19.6,1638869480.421875
157,19.35,1638869480.4375
158,19.34,1638869480.453125
159,19.56,1638869480.46875
160,19.99,1638869480.484375
161,20.62,1638869480.5
162,21.44,1638869480.515625
163,22.44,1638869480.53125
164,23.6,1638869480.546875
165,24.91,1638869480.5625
166,26.33,1638869480.578125
167,27.8,1638869480.59375
168,29.24,1638869480.609375
169,30.54,1638869480.625
170,31.55,1638869480.640625
171,32.13,1638869480.65625
172,32.13,1638869480.671875
173,31.39,1638869480.6875
174,29.82,1638869480.703125
175,27.36,1638869480.71875
176,24.02,1638869480.734375
177,19.88,1638869480.75
178,15.04,1638869480.765625
179,9.71,1638869480.78125
180,4.13,1638869480.796875
181,-1.44,1638869480.8125
182,-6.74,1638869480.828125
183,-11.55,1638869480.84375
184,-15.67,1638869480.859375
185,-18.97,1638869480.875
186,-21.4,1638869480.890625
187,-22.95,1638869480.90625
188,-23.65,1638869480.921875
189,-23.61,1638869480.9375
190,-22.95,1638869480.953125
191,-21.8,1638869480.96875
192,-20.29,1638869480.984375
193,-18.52,1638869481.0
194,-16.58,1638869481.015625
195,-14.51,1638869481.03125
196,-12.37,1638869481.046875
197,-10.15,1638869481.0625
198,-7.89,1638869481.078125
199,-5.59,1638869481.09375
200,-3.27,1638869481.109375
201,-0.92,1638869481.125
202,1.46,1638869481.140625
203,3.89,1638869481.15625
204,6.37,1638869481.171875
205,8.93,1638869481.1875
206,11.61,1638869481.203125
207,14.36,1638869481.21875
208,17.16,1638869481.234375
209,20.0,1638869481.25
210,22.89,1638869481.265625
211,25.85,1638869481.28125
212,28.9,1638869481.296875
213,32.08,1638869481.3125
214,35.47,1638869481.328125
215,39.14,1638869481.34375
216,43.0,1638869481.359375
217,47.0,1638869481.375
218,51.14,1638869481.390625
219,55.42,1638869481.40625
220,59.85,1638869481.421875
221,64.47,1638869481.4375
222,69.31,1638869481.453125
223,74.47,1638869481.46875
224,80.04,1638869481.484375
225,85.84,1638869481.5
226,91.77,1638869481.515625
227,97.76,1638869481.53125
228,103.78,1638869481.546875
229,109.8,1638869481.5625
230,115.82,1638869481.578125
231,121.86,1638869481.59375
232,127.95,1638869481.609375
233,134.18,1638869481.625
234,140.24,1638869481.640625
235,145.89,1638869481.65625
236,150.92,1638869481.671875
237,155.08,1638869481.6875
238,158.09,1638869481.703125
239,159.53,1638869481.71875
240,158.84,1638869481.734375
241,155.17,1638869481.75
242,150.14,1638869481.765625
243,144.32,1638869481.78125
244,138.02,1638869481.796875
245,131.49,1638869481.8125
246,124.87,1638869481.828125
247,118.25,1638869481.84375
248,111.74,1638869481.859375
249,105.42,1638869481.875
250,99.4,1638869481.890625
251,93.82,1638869481.90625
252,88.47,1638869481.921875
253,83.2,1638869481.9375
254,77.93,1638869481.953125
255,72.61,1638869481.96875
256,67.22,1638869481.984375
257,61.79,1638869482.0
258,56.37,1638869482.015625
259,51.09,1638869482.03125
260,46.15,1638869482.046875
261,41.43,1638869482.0625
262,36.88,1638869482.078125
263,32.49,1638869482.09375
264,28.21,1638869482.109375
265,24.03,1638869482.125
266,19.93,1638869482.140625
267,15.99,1638869482.15625
268,12.29,1638869482.171875
269,8.99,1638869482.1875
270,6.03,1638869482.203125
271,3.38,1638869482.21875
272,0.96,1638869482.234375
273,-1.33,1638869482.25
274,-3.62,1638869482.265625
275,-5.99,1638869482.28125
276,-8.44,1638869482.296875
277,-10.88,1638869482.3125
278,-13.13,1638869482.328125
279,-15.13,1638869482.34375
280,-16.88,1638869482.359375
281,-18.52,1638869482.375
282,-20.27,1638869482.390625
283,-22.4,1638869482.40625
284,-25.11,1638869482.421875
285,-28.37,1638869482.4375
286,-31.97,1638869482.453125
287,-35.58,1638869482.46875
288,-38.92,1638869482.484375
289,-41.89,1638869482.5
290,-44.73,1638869482.515625
291,-47.91,1638869482.53125
292,-51.96,1638869482.546875
293,-57.23,1638869482.5625
294,-63.73,1638869482.578125
295,-71.01,1638869482.59375
296,-78.39,1638869482.609375
297,-85.27,1638869482.625
298,-91.4,1638869482.640625
299,-97.11,1638869482.65625
300,-103.23,1638869482.671875
301,-110.69,1638869482.6875
302,-120.15,1638869482.703125
303,-131.67,1638869482.71875
304,-144.61,1638869482.734375
305,-157.99,1638869482.75
306,-170.85,1638869482.765625
307,-182.75,1638869482.78125
308,-193.91,1638869482.796875
309,-205.19,1638869482.8125
310,-217.74,1638869482.828125
311,-232.8,1638869482.84375
312,-251.44,1638869482.859375
313,-274.09,1638869482.875
314,-300.1,1638869482.890625
315,-327.31,1638869482.90625
316,-352.07,1638869482.921875
317,-370.0,1638869482.9375
318,-377.31,1638869482.953125
319,-372.26,1638869482.96875
320,-355.85,1638869482.984375
321,-331.51,1638869483.0
322,-303.73,1638869483.015625
323,-276.3,1638869483.03125
324,-251.14,1638869483.046875
325,-228.03,1638869483.0625
326,-205.5,1638869483.078125
327,-182.12,1638869483.09375
328,-157.42,1638869483.109375
329,-132.27,1638869483.125
330,-108.44,1638869483.140625
331,-87.78,1638869483.15625
332,-71.56,1638869483.171875
333,-60.13,1638869483.1875
334,-52.98,1638869483.203125
335,-49.03,1638869483.21875
336,-47.11,1638869483.234375
337,-46.21,1638869483.25
338,-45.59,1638869483.265625
339,-44.65,1638869483.28125
340,-42.87,1638869483.296875
341,-39.73,1638869483.3125
342,-34.89,1638869483.328125
343,-28.43,1638869483.34375
344,-21.01,1638869483.359375
345,-13.81,1638869483.375
346,-8.03,1638869483.390625
347,-4.4,1638869483.40625
348,-2.64,1638869483.421875
349,-1.53,1638869483.4375
350,0.76,1638869483.453125
351,5.8,1638869483.46875
352,14.26,1638869483.484375
353,25.51,1638869483.5
354,37.77,1638869483.515625
355,48.83,1638869483.53125
356,56.78,1638869483.546875
357,60.61,1638869483.5625
358,60.48,1638869483.578125
359,57.43,1638869483.59375
360,52.97,1638869483.609375
361,48.51,1638869483.625
362,45.12,1638869483.640625
363,43.31,1638869483.65625
364,43.16,1638869483.671875
365,44.47,1638869483.6875
366,46.89,1638869483.703125
367,49.99,1638869483.71875
368,53.28,1638869483.734375
369,56.18,1638869483.75
370,58.07,1638869483.765625
371,58.43,1638869483.78125
372,57.04,1638869483.796875
373,54.09,1638869483.8125
374,50.19,1638869483.828125
375,46.2,1638869483.84375
376,42.85,1638869483.859375
377,40.54,1638869483.875
378,39.26,1638869483.890625
379,38.68,1638869483.90625
380,38.43,1638869483.921875
381,38.28,1638869483.9375
382,38.18,1638869483.953125
383,38.2,1638869483.96875
384,38.31,1638869483.984375
385,38.29,1638869484.0
386,37.74,1638869484.015625
387,36.18,1638869484.03125
388,33.35,1638869484.046875
389,29.29,1638869484.0625
390,24.46,1638869484.078125
391,19.63,1638869484.09375
392,15.66,1638869484.109375
393,13.22,1638869484.125
394,12.6,1638869484.140625
395,13.56,1638869484.15625
396,15.39,1638869484.171875
397,17.2,1638869484.1875
398,18.14,1638869484.203125
399,17.75,1638869484.21875
400,16.04,1638869484.234375
401,13.47,1638869484.25
402,10.84,1638869484.265625
403,9.04,1638869484.28125
404,8.96,1638869484.296875
405,11.19,1638869484.3125
406,15.83,1638869484.328125
407,22.22,1638869484.34375
408,28.89,1638869484.359375
409,33.77,1638869484.375
410,34.83,1638869484.390625
411,30.77,1638869484.40625
412,21.62,1638869484.421875
413,8.83,1638869484.4375
414,-5.16,1638869484.453125
415,-17.77,1638869484.46875
416,-27.03,1638869484.484375
417,-32.17,1638869484.5
418,-33.54,1638869484.515625
419,-32.2,1638869484.53125
420,-29.43,1638869484.546875
421,-26.32,1638869484.5625
422,-23.59,1638869484.578125
423,-21.65,1638869484.59375
424,-20.57,1638869484.609375
425,-20.23,1638869484.625
426,-20.33,1638869484.640625
427,-20.51,1638869484.65625
428,-20.52,1638869484.671875
429,-20.24,1638869484.6875
430,-19.83,1638869484.703125
431,-19.55,1638869484.71875
432,-19.69,1638869484.734375
433,-20.35,1638869484.75
434,-21.3,1638869484.765625
435,-21.97,1638869484.78125
436,-21.36,1638869484.796875
437,-18.35,1638869484.8125
438,-11.93,1638869484.828125
439,-1.78,1638869484.84375
440,11.47,1638869484.859375
441,26.18,1638869484.875
442,40.1,1638869484.890625
443,51.04,1638869484.90625
444,57.51,1638869484.921875
445,59.1,1638869484.9375
446,56.38,1638869484.953125
447,50.53,1638869484.96875
448,42.86,1638869484.984375
449,34.57,1638869485.0
450,26.58,1638869485.015625
451,19.59,1638869485.03125
452,14.11,1638869485.046875
453,10.42,1638869485.0625
454,8.71,1638869485.078125
455,9.18,1638869485.09375
456,11.97,1638869485.109375
457,16.8,1638869485.125
458,22.57,1638869485.140625
459,27.23,1638869485.15625
460,28.27,1638869485.171875
461,23.88,1638869485.1875
462,13.93,1638869485.203125
463,0.39,1638869485.21875
464,-13.42,1638869485.234375
465,-24.19,1638869485.25
466,-29.99,1638869485.265625
467,-30.8,1638869485.28125
468,-28.05,1638869485.296875
469,-23.57,1638869485.3125
470,-18.58,1638869485.328125
471,-13.45,1638869485.34375
472,-7.97,1638869485.359375
473,-1.99,1638869485.375
474,4.3,1638869485.390625
475,10.35,1638869485.40625
476,15.66,1638869485.421875
477,19.89,1638869485.4375
478,22.9,1638869485.453125
479,24.77,1638869485.46875
480,25.61,1638869485.484375
481,25.62,1638869485.5
482,24.9,1638869485.515625
483,23.48,1638869485.53125
484,21.27,1638869485.546875
485,18.19,1638869485.5625
486,14.34,1638869485.578125
487,10.14,1638869485.59375
488,6.23,1638869485.609375
489,3.09,1638869485.625
490,0.81,1638869485.640625
491,-1.14,1638869485.65625
492,-3.76,1638869485.671875
493,-8.03,1638869485.6875
494,-14.42,1638869485.703125
495,-22.56,1638869485.71875
496,-31.01,1638869485.734375
497,-37.41,1638869485.75
498,-39.05,1638869485.765625
499,-33.6,1638869485.78125
500,-20.13,1638869485.796875
501,0.1,1638869485.8125
502,23.69,1638869485.828125
503,45.87,1638869485.84375
504,62.02,1638869485.859375
505,69.23,1638869485.875
506,67.22,1638869485.890625
507,58.14,1638869485.90625
508,45.65,1638869485.921875
509,33.4,1638869485.9375
510,23.92,1638869485.953125
511,18.24,1638869485.96875
512,16.05,1638869485.984375
513,16.24,1638869486.0
514,17.48,1638869486.015625
515,18.57,1638869486.03125
516,18.54,1638869486.046875
517,16.79,1638869486.0625
518,13.17,1638869486.078125
519,8.13,1638869486.09375
520,2.89,1638869486.109375
521,-0.74,1638869486.125
522,-0.67,1638869486.140625
523,4.54,1638869486.15625
524,14.9,1638869486.171875
525,28.67,1638869486.1875
526,42.73,1638869486.203125
527,53.62,1638869486.21875
528,58.75,1638869486.234375
529,57.29,1638869486.25
530,50.11,1638869486.265625
531,39.04,1638869486.28125
532,26.04,1638869486.296875
533,12.45,1638869486.3125
534,-0.93,1638869486.328125
535,-13.48,1638869486.34375
536,-24.4,1638869486.359375
537,-32.65,1638869486.375
538,-37.33,1638869486.390625
539,-37.98,1638869486.40625
540,-34.79,1638869486.421875
541,-28.46,1638869486.4375
542,-19.99,1638869486.453125
543,-10.36,1638869486.46875
544,-0.52,1638869486.484375
545,8.74,1638869486.5
546,16.68,1638869486.515625
547,22.8,1638869486.53125
548,26.95,1638869486.546875
549,29.37,1638869486.5625
550,30.66,1638869486.578125
551,31.46,1638869486.59375
552,32.29,1638869486.609375
553,33.39,1638869486.625
554,34.74,1638869486.640625
555,36.26,1638869486.65625
556,37.9,1638869486.671875
557,39.61,1638869486.6875
558,41.25,1638869486.703125
559,42.43,1638869486.71875
560,42.41,1638869486.734375
561,40.29,1638869486.75
562,35.34,1638869486.765625
563,27.26,1638869486.78125
564,16.3,1638869486.796875
565,3.27,1638869486.8125
566,-10.83,1638869486.828125
567,-24.93,1638869486.84375
568,-38.08,1638869486.859375
569,-49.41,1638869486.875
570,-58.16,1638869486.890625
571,-63.73,1638869486.90625
572,-65.96,1638869486.921875
573,-65.19,1638869486.9375
574,-62.25,1638869486.953125
575,-58.23,1638869486.96875
576,-54.1,1638869486.984375
577,-50.46,1638869487.0
578,-47.46,1638869487.015625
579,-44.92,1638869487.03125
580,-42.46,1638869487.046875
581,-39.73,1638869487.0625
582,-36.42,1638869487.078125
583,-32.38,1638869487.09375
584,-27.65,1638869487.109375
585,-22.56,1638869487.125
586,-17.69,1638869487.140625
587,-13.77,1638869487.15625
588,-11.41,1638869487.171875
589,-10.88,1638869487.1875
590,-12.0,1638869487.203125
591,-14.16,1638869487.21875
592,-16.53,1638869487.234375
593,-18.32,1638869487.25
594,-18.87,1638869487.265625
595,-17.84,1638869487.28125
596,-15.18,1638869487.296875
597,-11.14,1638869487.3125
598,-6.22,1638869487.328125
599,-1.05,1638869487.34375
600,3.72,1638869487.359375
601,7.58,1638869487.375
602,10.27,1638869487.390625
603,11.92,1638869487.40625
604,12.86,1638869487.421875
605,13.6,1638869487.4375
606,14.63,1638869487.453125
607,16.26,1638869487.46875
608,18.62,1638869487.484375
609,21.61,1638869487.5
610,25.02,1638869487.515625
611,28.48,1638869487.53125
612,31.55,1638869487.546875
613,33.72,1638869487.5625
614,34.5,1638869487.578125
615,33.59,1638869487.59375
616,30.95,1638869487.609375
617,26.96,1638869487.625
618,22.3,1638869487.640625
619,17.79,1638869487.65625
620,14.13,1638869487.671875
621,11.7,1638869487.6875
622,10.47,1638869487.703125
623,10.1,1638869487.71875
624,10.06,1638869487.734375
625,9.87,1638869487.75
626,9.27,1638869487.765625
627,8.21,1638869487.78125
628,6.89,1638869487.796875
629,5.57,1638869487.8125
630,4.56,1638869487.828125
631,4.04,1638869487.84375
632,4.07,1638869487.859375
633,4.52,1638869487.875
634,5.04,1638869487.890625
635,5.15,1638869487.90625
636,4.3,1638869487.921875
637,1.95,1638869487.9375
638,-2.25,1638869487.953125
639,-8.37,1638869487.96875
640,-16.16,1638869487.984375
641,-25.05,1638869488.0
642,-34.31,1638869488.015625
643,-43.2,1638869488.03125
644,-51.02,1638869488.046875
645,-57.13,1638869488.0625
646,-60.87,1638869488.078125
647,-61.55,1638869488.09375
648,-58.58,1638869488.109375
649,-51.73,1638869488.125
650,-41.4,1638869488.140625
651,-28.66,1638869488.15625
652,-15.19,1638869488.171875
653,-2.76,1638869488.1875
654,7.11,1638869488.203125
655,13.63,1638869488.21875
656,16.77,1638869488.234375
657,17.15,1638869488.25
658,15.73,1638869488.265625
659,13.57,1638869488.28125
660,11.56,1638869488.296875
661,10.36,1638869488.3125
662,10.31,1638869488.328125
663,11.41,1638869488.34375
664,13.35,1638869488.359375
665,15.61,1638869488.375
666,17.62,1638869488.390625
667,18.88,1638869488.40625
668,19.14,1638869488.421875
669,18.43,1638869488.4375
670,17.04,1638869488.453125
671,15.49,1638869488.46875
672,14.38,1638869488.484375
673,14.32,1638869488.5
674,15.63,1638869488.515625
675,18.3,1638869488.53125
676,21.86,1638869488.546875
677,25.56,1638869488.5625
678,28.52,1638869488.578125
679,30.07,1638869488.59375
680,29.85,1638869488.609375
681,27.78,1638869488.625
682,24.08,1638869488.640625
683,19.08,1638869488.65625
684,13.25,1638869488.671875
685,7.13,1638869488.6875
686,1.34,1638869488.703125
687,-3.58,1638869488.71875
688,-7.34,1638869488.734375
689,-10.01,1638869488.75
690,-11.98,1638869488.765625
691,-13.71,1638869488.78125
692,-15.54,1638869488.796875
693,-17.48,1638869488.8125
694,-19.32,1638869488.828125
695,-20.82,1638869488.84375
696,-21.93,1638869488.859375
697,-22.94,1638869488.875
698,-24.32,1638869488.890625
699,-26.41,1638869488.90625
700,-29.07,1638869488.921875
701,-31.66,1638869488.9375
702,-33.07,1638869488.953125
703,-32.19,1638869488.96875
704,-28.4,1638869488.984375
705,-21.81,1638869489.0
706,-13.35,1638869489.015625
707,-4.42,1638869489.03125
708,3.5,1638869489.046875
709,9.41,1638869489.0625
710,12.93,1638869489.078125
711,14.31,1638869489.09375
712,14.28,1638869489.109375
713,13.59,1638869489.125
714,12.98,1638869489.140625
715,12.9,1638869489.15625
716,13.61,1638869489.171875
717,15.13,1638869489.1875
718,17.29,1638869489.203125
719,19.76,1638869489.21875
720,22.09,1638869489.234375
721,23.87,1638869489.25
722,24.72,1638869489.265625
723,24.45,1638869489.28125
724,23.11,1638869489.296875
725,20.96,1638869489.3125
726,18.44,1638869489.328125
727,16.02,1638869489.34375
728,14.07,1638869489.359375
729,12.82,1638869489.375
730,12.28,1638869489.390625
731,12.24,1638869489.40625
732,12.42,1638869489.421875
733,12.44,1638869489.4375
734,12.01,1638869489.453125
735,10.98,1638869489.46875
736,9.35,1638869489.484375
737,7.34,1638869489.5
738,5.25,1638869489.515625
739,3.44,1638869489.53125
740,2.13,1638869489.546875
741,1.4,1638869489.5625
742,1.14,1638869489.578125
743,1.11,1638869489.59375
744,1.07,1638869489.609375
745,0.81,1638869489.625
746,0.28,1638869489.640625
747,-0.52,1638869489.65625
748,-1.49,1638869489.671875
749,-2.56,1638869489.6875
750,-3.71,1638869489.703125
751,-4.98,1638869489.71875
752,-6.52,1638869489.734375
753,-8.53,1638869489.75
754,-11.25,1638869489.765625
755,-14.88,1638869489.78125
756,-19.43,1638869489.796875
757,-24.54,1638869489.8125
758,-29.36,1638869489.828125
759,-32.74,1638869489.84375
760,-33.53,1638869489.859375
761,-31.07,1638869489.875
762,-25.61,1638869489.890625
763,-18.26,1638869489.90625
764,-10.61,1638869489.921875
765,-4.13,1638869489.9375
766,0.45,1638869489.953125
767,3.27,1638869489.96875
768,5.08,1638869489.984375
769,6.7,1638869490.0
770,8.61,1638869490.015625
771,10.74,1638869490.03125
772,12.79,1638869490.046875
773,14.52,1638869490.0625
774,16.0,1638869490.078125
775,17.5,1638869490.09375
776,19.27,1638869490.109375
777,21.23,1638869490.125
778,22.97,1638869490.140625
779,23.93,1638869490.15625
780,23.71,1638869490.171875
781,22.34,1638869490.1875
782,20.19,1638869490.203125
783,17.81,1638869490.21875
784,15.67,1638869490.234375
785,13.96,1638869490.25
786,12.63,1638869490.265625
787,11.48,1638869490.28125
788,10.31,1638869490.296875
789,9.04,1638869490.3125
790,7.72,1638869490.328125
791,6.48,1638869490.34375
792,5.48,1638869490.359375
793,4.89,1638869490.375
794,4.73,1638869490.390625
795,4.91,1638869490.40625
796,5.16,1638869490.421875
797,5.19,1638869490.4375
798,4.85,1638869490.453125
799,4.17,1638869490.46875
800,3.39,1638869490.484375
801,2.77,1638869490.5
802,2.47,1638869490.515625
803,2.39,1638869490.53125
804,2.2,1638869490.546875
805,1.49,1638869490.5625
806,-0.05,1638869490.578125
807,-2.47,1638869490.59375
808,-5.56,1638869490.609375
809,-8.89,1638869490.625
810,-12.0,1638869490.640625
811,-14.55,1638869490.65625
812,-16.43,1638869490.671875
813,-17.76,1638869490.6875
814,-18.84,1638869490.703125
815,-20.08,1638869490.71875
816,-21.83,1638869490.734375
817,-24.31,1638869490.75
818,-27.52,1638869490.765625
819,-31.13,1638869490.78125
820,-34.46,1638869490.796875
821,-36.61,1638869490.8125
822,-36.58,1638869490.828125
823,-33.68,1638869490.84375
824,-27.82,1638869490.859375
825,-19.7,1638869490.875
826,-10.65,1638869490.890625
827,-2.22,1638869490.90625
828,4.37,1638869490.921875
829,8.59,1638869490.9375
830,10.68,1638869490.953125
831,11.33,1638869490.96875
832,11.32,1638869490.984375
833,11.23,1638869491.0
834,11.39,1638869491.015625
835,11.93,1638869491.03125
836,12.91,1638869491.046875
837,14.3,1638869491.0625
838,15.96,1638869491.078125
839,17.53,1638869491.09375
840,18.52,1638869491.109375
841,18.5,1638869491.125
842,17.29,1638869491.140625
843,15.05,1638869491.15625
844,12.26,1638869491.171875
845,9.52,1638869491.1875
846,7.39,1638869491.203125
847,6.23,1638869491.21875
848,6.09,1638869491.234375
849,6.7,1638869491.25
850,7.54,1638869491.265625
851,7.98,1638869491.28125
852,7.58,1638869491.296875
853,6.2,1638869491.3125
854,4.17,1638869491.328125
855,2.1,1638869491.34375
856,0.56,1638869491.359375
857,-0.18,1638869491.375
858,-0.26,1638869491.390625
859,-0.15,1638869491.40625
860,-0.35,1638869491.421875
861,-1.18,1638869491.4375
862,-2.56,1638869491.453125
863,-3.93,1638869491.46875
864,-4.33,1638869491.484375
865,-2.6,1638869491.5
866,2.31,1638869491.515625
867,10.87,1638869491.53125
868,22.57,1638869491.546875
869,35.78,1638869491.5625
870,48.01,1638869491.578125
871,56.53,1638869491.59375
872,59.24,1638869491.609375
873,55.18,1638869491.625
874,44.77,1638869491.640625
875,29.43,1638869491.65625
876,11.22,1638869491.671875
877,-7.7,1638869491.6875
878,-25.25,1638869491.703125
879,-39.52,1638869491.71875
880,-49.09,1638869491.734375
881,-53.19,1638869491.75
882,-52.12,1638869491.765625
883,-47.11,1638869491.78125
884,-40.02,1638869491.796875
885,-32.58,1638869491.8125
886,-25.8,1638869491.828125
887,-19.65,1638869491.84375
888,-13.31,1638869491.859375
889,-5.84,1638869491.875
890,3.3,1638869491.890625
891,13.85,1638869491.90625
892,24.97,1638869491.921875
893,35.71,1638869491.9375
894,45.42,1638869491.953125
895,53.89,1638869491.96875
896,61.21,1638869491.984375
897,67.36,1638869492.0
898,72.02,1638869492.015625
899,74.62,1638869492.03125
900,74.53,1638869492.046875
901,71.53,1638869492.0625
902,65.95,1638869492.078125
903,58.54,1638869492.09375
904,50.11,1638869492.109375
905,41.18,1638869492.125
906,31.77,1638869492.140625
907,21.49,1638869492.15625
908,10.01,1638869492.171875
909,-2.59,1638869492.1875
910,-15.47,1638869492.203125
911,-27.22,1638869492.21875
912,-36.26,1638869492.234375
913,-41.41,1638869492.25
914,-42.31,1638869492.265625
915,-39.52,1638869492.28125
916,-34.22,1638869492.296875
917,-27.75,1638869492.3125
918,-21.12,1638869492.328125
919,-14.74,1638869492.34375
920,-8.43,1638869492.359375
921,-1.69,1638869492.375
922,6.03,1638869492.390625
923,14.94,1638869492.40625
924,24.85,1638869492.421875
925,35.05,1638869492.4375
926,44.51,1638869492.453125
927,52.16,1638869492.46875
928,57.36,1638869492.484375
929,60.24,1638869492.5
930,61.69,1638869492.515625
931,63.13,1638869492.53125
932,65.89,1638869492.546875
933,70.49,1638869492.5625
934,76.58,1638869492.578125
935,83.04,1638869492.59375
936,88.51,1638869492.609375
937,91.92,1638869492.625
938,92.33,1638869492.640625
939,88.58,1638869492.65625
940,78.83,1638869492.671875
941,60.74,1638869492.6875
942,32.28,1638869492.703125
943,-7.21,1638869492.71875
944,-56.53,1638869492.734375
945,-113.22,1638869492.75
946,-174.43,1638869492.765625
947,-237.68,1638869492.78125
948,-300.48,1638869492.796875
949,-359.26,1638869492.8125
950,-408.42,1638869492.828125
951,-440.66,1638869492.84375
952,-449.25,1638869492.859375
953,-431.38,1638869492.875
954,-390.63,1638869492.890625
955,-336.98,1638869492.90625
956,-283.69,1638869492.921875
957,-242.55,1638869492.9375
958,-219.48,1638869492.953125
959,-212.85,1638869492.96875
960,-214.98,1638869492.984375
961,-215.9,1638869493.0
962,-207.43,1638869493.015625
963,-185.64,1638869493.03125
964,-151.11,1638869493.046875
965,-107.43,1638869493.0625
966,-58.85,1638869493.078125
967,-8.62,1638869493.09375
968,41.45,1638869493.109375
969,90.67,1638869493.125
970,138.59,1638869493.140625
971,184.67,1638869493.15625
972,228.67,1638869493.171875
973,271.21,1638869493.1875
974,314.12,1638869493.203125
975,359.67,1638869493.21875
976,409.12,1638869493.234375
977,460.95,1638869493.25
978,510.18,1638869493.265625
979,549.36,1638869493.28125
980,570.99,1638869493.296875
981,570.23,1638869493.3125
982,546.61,1638869493.328125
983,503.86,1638869493.34375
984,448.08,1638869493.359375
985,385.33,1638869493.375
986,319.97,1638869493.390625
987,254.28,1638869493.40625
988,189.18,1638869493.421875
989,125.43,1638869493.4375
990,64.07,1638869493.453125
991,6.12,1638869493.46875
992,-48.08,1638869493.484375
993,-99.52,1638869493.5
994,-150.63,1638869493.515625
995,-204.69,1638869493.53125
996,-264.52,1638869493.546875
997,-330.73,1638869493.5625
998,-399.96,1638869493.578125
999,-464.6,1638869493.59375
1000,-514.18,1638869493.609375
1001,-538.68,1638869493.625
1002,-532.37,1638869493.640625
1003,-496.19,1638869493.65625
1004,-437.41,1638869493.671875
1005,-366.73,1638869493.6875
1006,-294.1,1638869493.703125
1007,-225.44,1638869493.71875
1008,-162.1,1638869493.734375
1009,-102.38,1638869493.75
1010,-43.96,1638869493.765625
1011,14.49,1638869493.78125
1012,72.98,1638869493.796875
1013,130.68,1638869493.8125
1014,185.91,1638869493.828125
1015,235.67,1638869493.84375
1016,275.19,1638869493.859375
1017,298.39,1638869493.875
1018,299.74,1638869493.890625
1019,276.69,1638869493.90625
1020,230.61,1638869493.921875
1021,166.25,1638869493.9375
1022,89.3,1638869493.953125
1023,4.31,1638869493.96875
1024,-85.78,1638869493.984375
1025,-178.05,1638869494.0
1026,-267.33,1638869494.015625
1027,-345.33,1638869494.03125
1028,-402.32,1638869494.046875
1029,-430.63,1638869494.0625
1030,-428.06,1638869494.078125
1031,-399.2,1638869494.09375
1032,-353.65,1638869494.109375
1033,-302.25,1638869494.125
1034,-253.41,1638869494.140625
1035,-211.38,1638869494.15625
1036,-176.58,1638869494.171875
1037,-147.43,1638869494.1875
1038,-122.16,1638869494.203125
1039,-99.47,1638869494.21875
1040,-78.12,1638869494.234375
1041,-56.38,1638869494.25
1042,-32.03,1638869494.265625
1043,-3.38,1638869494.28125
1044,29.74,1638869494.296875
1045,65.5,1638869494.3125
1046,100.96,1638869494.328125
1047,133.74,1638869494.34375
1048,163.59,1638869494.359375
1049,192.66,1638869494.375
1050,223.76,1638869494.390625
1051,257.93,1638869494.40625
1052,292.53,1638869494.421875
1053,321.42,1638869494.4375
1054,337.16,1638869494.453125
1055,334.34,1638869494.46875
1056,311.8,1638869494.484375
1057,273.23,1638869494.5
1058,225.74,1638869494.515625
1059,177.34,1638869494.53125
1060,134.71,1638869494.546875
1061,101.89,1638869494.5625
1062,79.8,1638869494.578125
1063,66.53,1638869494.59375
1064,57.88,1638869494.609375
1065,48.36,1638869494.625
1066,32.83,1638869494.640625
1067,8.23,1638869494.65625
1068,-25.22,1638869494.671875
1069,-63.86,1638869494.6875
1070,-101.86,1638869494.703125
1071,-133.22,1638869494.71875
1072,-153.71,1638869494.734375
1073,-161.68,1638869494.75
1074,-158.07,1638869494.765625
1075,-145.46,1638869494.78125
1076,-127.24,1638869494.796875
1077,-107.03,1638869494.8125
1078,-88.38,1638869494.828125
1079,-74.46,1638869494.84375
1080,-67.4,1638869494.859375
1081,-67.5,1638869494.875
1082,-72.47,1638869494.890625
1083,-77.76,1638869494.90625
1084,-77.73,1638869494.921875
1085,-67.47,1638869494.9375
1086,-44.56,1638869494.953125
1087,-9.67,1638869494.96875
1088,34.34,1638869494.984375
1089,84.37,1638869495.0
1090,138.73,1638869495.015625
1091,197.33,1638869495.03125
1092,259.99,1638869495.046875
1093,324.14,1638869495.0625
1094,383.4,1638869495.078125
1095,428.42,1638869495.09375
1096,449.74,1638869495.109375
1097,441.17,1638869495.125
1098,402.11,1638869495.140625
1099,337.82,1638869495.15625
1100,257.92,1638869495.171875
1101,173.65,1638869495.1875
1102,95.56,1638869495.203125
1103,31.99,1638869495.21875
1104,-11.61,1638869495.234375
1105,-32.9,1638869495.25
1106,-32.59,1638869495.265625
1107,-14.28,1638869495.28125
1108,16.15,1638869495.296875
1109,51.93,1638869495.3125
1110,86.68,1638869495.328125
1111,115.75,1638869495.34375
1112,136.74,1638869495.359375
1113,149.32,1638869495.375
1114,154.74,1638869495.390625
1115,155.08,1638869495.40625
1116,152.58,1638869495.421875
1117,148.91,1638869495.4375
1118,144.99,1638869495.453125
1119,140.29,1638869495.46875
1120,133.05,1638869495.484375
1121,121.01,1638869495.5
1122,102.31,1638869495.515625
1123,76.42,1638869495.53125
1124,44.58,1638869495.546875
1125,9.43,1638869495.5625
1126,-25.88,1638869495.578125
1127,-58.31,1638869495.59375
1128,-86.15,1638869495.609375
1129,-108.87,1638869495.625
1130,-126.62,1638869495.640625
1131,-139.53,1638869495.65625
1132,-147.3,1638869495.671875
1133,-149.21,1638869495.6875
1134,-144.49,1638869495.703125
1135,-135.48,1638869495.71875
1136,-124.16,1638869495.734375
1137,-112.44,1638869495.75
1138,-101.62,1638869495.765625
1139,-92.02,1638869495.78125
1140,-83.26,1638869495.796875
1141,-74.84,1638869495.8125
1142,-66.56,1638869495.828125
1143,-58.7,1638869495.84375
1144,-51.8,1638869495.859375
1145,-46.09,1638869495.875
1146,-41.63,1638869495.890625
1147,-38.32,1638869495.90625
1148,-35.83,1638869495.921875
1149,-33.84,1638869495.9375
1150,-32.07,1638869495.953125
1151,-30.36,1638869495.96875
1152,-28.71,1638869495.984375
1153,-27.19,1638869496.0
1154,-25.67,1638869496.015625
1155,-24.06,1638869496.03125
1156,-22.29,1638869496.046875
1157,-20.28,1638869496.0625
1158,-18.0,1638869496.078125
1159,-15.45,1638869496.09375
1160,-12.6,1638869496.109375
1161,-9.42,1638869496.125
1162,-6.01,1638869496.140625
1163,-2.45,1638869496.15625
1164,1.06,1638869496.171875
1165,4.1,1638869496.1875
1166,6.3,1638869496.203125
1167,7.45,1638869496.21875
1168,7.51,1638869496.234375
1169,6.74,1638869496.25
1170,5.53,1638869496.265625
1171,4.12,1638869496.28125
1172,2.56,1638869496.296875
1173,0.66,1638869496.3125
1174,-2.07,1638869496.328125
1175,-6.01,1638869496.34375
1176,-10.9,1638869496.359375
1177,-16.63,1638869496.375
1178,-22.44,1638869496.390625
1179,-27.52,1638869496.40625
1180,-31.42,1638869496.421875
1181,-34.45,1638869496.4375
1182,-37.64,1638869496.453125
1183,-42.44,1638869496.46875
1184,-50.17,1638869496.484375
1185,-61.41,1638869496.5
1186,-75.75,1638869496.515625
1187,-91.75,1638869496.53125
1188,-107.9,1638869496.546875
1189,-122.98,1638869496.5625
1190,-136.8,1638869496.578125
1191,-149.74,1638869496.59375
1192,-162.79,1638869496.609375
1193,-177.03,1638869496.625
1194,-193.46,1638869496.640625
1195,-212.86,1638869496.65625
1196,-235.26,1638869496.671875
1197,-259.32,1638869496.6875
1198,-281.79,1638869496.703125
1199,-297.75,1638869496.71875
1200,-301.46,1638869496.734375
1201,-289.23,1638869496.75
1202,-261.42,1638869496.765625
1203,-222.89,1638869496.78125
1204,-181.61,1638869496.796875
1205,-145.49,1638869496.8125
1206,-119.67,1638869496.828125
1207,-105.18,1638869496.84375
1208,-99.7,1638869496.859375
1209,-99.03,1638869496.875
1210,-99.87,1638869496.890625
1211,-100.68,1638869496.90625
1212,-101.18,1638869496.921875
1213,-101.19,1638869496.9375
1214,-99.7,1638869496.953125
1215,-94.79,1638869496.96875
1216,-84.1,1638869496.984375
1217,-69.98,1638869497.0
1218,-54.39,1638869497.015625
1219,-39.66,1638869497.03125
1220,-27.93,1638869497.046875
1221,-20.27,1638869497.0625
1222,-16.5,1638869497.078125
1223,-15.34,1638869497.09375
1224,-15.21,1638869497.109375
1225,-14.96,1638869497.125
1226,-14.28,1638869497.140625
1227,-13.2,1638869497.15625
1228,-12.34,1638869497.171875
1229,-12.39,1638869497.1875
1230,-13.56,1638869497.203125
1231,-15.42,1638869497.21875
1232,-17.1,1638869497.234375
1233,-17.7,1638869497.25
1234,-16.71,1638869497.265625
1235,-14.29,1638869497.28125
1236,-10.7,1638869497.296875
1237,-6.59,1638869497.3125
1238,-2.67,1638869497.328125
1239,0.68,1638869497.34375
1240,3.44,1638869497.359375
1241,5.86,1638869497.375
1242,8.26,1638869497.390625
1243,10.79,1638869497.40625
1244,13.29,1638869497.421875
1245,15.66,1638869497.4375
1246,17.6,1638869497.453125
1247,18.82,1638869497.46875
1248,19.2,1638869497.484375
1249,18.73,1638869497.5
1250,17.61,1638869497.515625
1251,16.0,1638869497.53125
1252,14.06,1638869497.546875
1253,11.85,1638869497.5625
1254,9.48,1638869497.578125
1255,6.98,1638869497.59375
1256,4.33,1638869497.609375
1257,1.56,1638869497.625
1258,-1.34,1638869497.640625
1259,-4.32,1638869497.65625
1260,-7.4,1638869497.671875
1261,-10.57,1638869497.6875
1262,-13.83,1638869497.703125
1263,-17.14,1638869497.71875
1264,-20.42,1638869497.734375
1265,-23.63,1638869497.75
1266,-26.68,1638869497.765625
1267,-29.5,1638869497.78125
1268,-32.01,1638869497.796875
1269,-34.18,1638869497.8125
1270,-36.0,1638869497.828125
1271,-37.43,1638869497.84375
1272,-38.52,1638869497.859375
1273,-39.29,1638869497.875
1274,-39.77,1638869497.890625
1275,-39.98,1638869497.90625
1276,-39.97,1638869497.921875
1277,-39.71,1638869497.9375
1278,-39.19,1638869497.953125
1279,-38.4,1638869497.96875
1280,-37.29,1638869497.984375
1281,-35.81,1638869498.0
1282,-33.92,1638869498.015625
1283,-31.61,1638869498.03125
1284,-28.86,1638869498.046875
1285,-25.7,1638869498.0625
1286,-22.17,1638869498.078125
1287,-18.34,1638869498.09375
1288,-14.3,1638869498.109375
1289,-10.16,1638869498.125
1290,-6.04,1638869498.140625
1291,-2.04,1638869498.15625
1292,1.73,1638869498.171875
1293,5.21,1638869498.1875
1294,8.32,1638869498.203125
1295,11.06,1638869498.21875
1296,13.42,1638869498.234375
1297,15.42,1638869498.25
1298,17.1,1638869498.265625
1299,18.48,1638869498.28125
1300,19.61,1638869498.296875
1301,20.5,1638869498.3125
1302,21.17,1638869498.328125
1303,21.61,1638869498.34375
1304,21.85,1638869498.359375
1305,21.85,1638869498.375
1306,21.65,1638869498.390625
1307,21.25,1638869498.40625
1308,20.66,1638869498.421875
1309,19.91,1638869498.4375
1310,19.0,1638869498.453125
1311,17.94,1638869498.46875
1312,16.72,1638869498.484375
1313,15.34,1638869498.5
1314,13.76,1638869498.515625
1315,11.99,1638869498.53125
1316,10.03,1638869498.546875
1317,7.94,1638869498.5625
1318,5.79,1638869498.578125
1319,3.69,1638869498.59375
1320,1.78,1638869498.609375
1321,0.19,1638869498.625
1322,-0.95,1638869498.640625
1323,-1.55,1638869498.65625
1324,-1.57,1638869498.671875
1325,-1.02,1638869498.6875
1326,0.04,1638869498.703125
1327,1.47,1638869498.71875
1328,3.16,1638869498.734375
1329,4.94,1638869498.75
1330,6.66,1638869498.765625
1331,8.23,1638869498.78125
1332,9.53,1638869498.796875
1333,10.56,1638869498.8125
1334,11.29,1638869498.828125
1335,11.77,1638869498.84375
1336,12.01,1638869498.859375
1337,12.08,1638869498.875
1338,12.01,1638869498.890625
1339,11.84,1638869498.90625
1340,11.59,1638869498.921875
1341,11.27,1638869498.9375
1342,10.86,1638869498.953125
1343,10.37,1638869498.96875
1344,9.75,1638869498.984375
1345,8.96,1638869499.0
1346,7.99,1638869499.015625
1347,6.78,1638869499.03125
1348,5.31,1638869499.046875
1349,3.54,1638869499.0625
1350,1.47,1638869499.078125
1351,-0.89,1638869499.09375
1352,-3.5,1638869499.109375
1353,-6.3,1638869499.125
1354,-9.18,1638869499.140625
1355,-12.01,1638869499.15625
1356,-14.63,1638869499.171875
1357,-16.88,1638869499.1875
1358,-18.63,1638869499.203125
1359,-19.81,1638869499.21875
1360,-20.37,1638869499.234375
1361,-20.34,1638869499.25
1362,-19.81,1638869499.265625
1363,-18.86,1638869499.28125
1364,-17.62,1638869499.296875
1365,-16.17,1638869499.3125
1366,-14.62,1638869499.328125
1367,-13.05,1638869499.34375
1368,-11.54,1638869499.359375
1369,-10.2,1638869499.375
1370,-9.08,1638869499.390625
1371,-8.24,1638869499.40625
1372,-7.66,1638869499.421875
1373,-7.24,1638869499.4375
1374,-6.84,1638869499.453125
1375,-6.29,1638869499.46875
1376,-5.42,1638869499.484375
1377,-4.13,1638869499.5
1378,-2.39,1638869499.515625
1379,-0.26,1638869499.53125
1380,2.2,1638869499.546875
1381,4.98,1638869499.5625
1382,8.15,1638869499.578125
1383,11.84,1638869499.59375
1384,16.22,1638869499.609375
1385,21.39,1638869499.625
1386,27.28,1638869499.640625
1387,33.67,1638869499.65625
1388,40.17,1638869499.671875
1389,46.42,1638869499.6875
1390,52.21,1638869499.703125
1391,57.58,1638869499.71875
1392,62.79,1638869499.734375
1393,68.25,1638869499.75
1394,74.29,1638869499.765625
1395,81.03,1638869499.78125
1396,88.23,1638869499.796875
1397,95.45,1638869499.8125
1398,102.26,1638869499.828125
1399,108.46,1638869499.84375
1400,114.3,1638869499.859375
1401,120.44,1638869499.875
1402,127.72,1638869499.890625
1403,136.84,1638869499.90625
1404,148.04,1638869499.921875
1405,161.04,1638869499.9375
1406,175.09,1638869499.953125
1407,189.32,1638869499.96875
1408,203.09,1638869499.984375
1409,216.22,1638869500.0
1410,229.07,1638869500.015625
1411,242.5,1638869500.03125
1412,257.68,1638869500.046875
1413,275.83,1638869500.0625
1414,297.61,1638869500.078125
1415,322.63,1638869500.09375
1416,348.87,1638869500.109375
1417,372.78,1638869500.125
1418,390.02,1638869500.140625
1419,396.74,1638869500.15625
1420,390.97,1638869500.171875
1421,373.35,1638869500.1875
1422,346.95,1638869500.203125
1423,316.19,1638869500.21875
1424,285.43,1638869500.234375
1425,257.74,1638869500.25
1426,234.5,1638869500.265625
1427,215.56,1638869500.28125
1428,199.86,1638869500.296875
1429,186.11,1638869500.3125
1430,173.22,1638869500.328125
1431,160.49,1638869500.34375
1432,147.62,1638869500.359375
1433,134.53,1638869500.375
1434,121.15,1638869500.390625
1435,107.35,1638869500.40625
1436,92.95,1638869500.421875
1437,78.0,1638869500.4375
1438,63.0,1638869500.453125
1439,48.9,1638869500.46875
1440,36.89,1638869500.484375
1441,27.87,1638869500.5
1442,22.1,1638869500.515625
1443,19.04,1638869500.53125
1444,17.66,1638869500.546875
1445,16.93,1638869500.5625
1446,16.2,1638869500.578125
1447,15.27,1638869500.59375
1448,14.17,1638869500.609375
1449,12.85,1638869500.625
1450,11.14,1638869500.640625
1451,8.82,1638869500.65625
1452,5.91,1638869500.671875
1453,2.77,1638869500.6875
1454,-0.05,1638869500.703125
1455,-2.08,1638869500.71875
1456,-3.21,1638869500.734375
1457,-3.79,1638869500.75
1458,-4.41,1638869500.765625
1459,-5.62,1638869500.78125
1460,-7.69,1638869500.796875
1461,-10.5,1638869500.8125
1462,-13.72,1638869500.828125
1463,-16.96,1638869500.84375
1464,-19.89,1638869500.859375
1465,-22.34,1638869500.875
1466,-24.19,1638869500.890625
1467,-25.37,1638869500.90625
1468,-25.83,1638869500.921875
1469,-25.6,1638869500.9375
1470,-24.86,1638869500.953125
1471,-23.99,1638869500.96875
1472,-23.52,1638869500.984375
1473,-23.95,1638869501.0
1474,-25.6,1638869501.015625
1475,-28.42,1638869501.03125
1476,-31.94,1638869501.046875
1477,-35.44,1638869501.0625
1478,-38.2,1638869501.078125
1479,-39.8,1638869501.09375
1480,-40.23,1638869501.109375
1481,-39.81,1638869501.125
1482,-38.86,1638869501.140625
1483,-37.46,1638869501.15625
1484,-35.38,1638869501.171875
1485,-32.28,1638869501.1875
1486,-28.08,1638869501.203125
1487,-23.15,1638869501.21875
1488,-18.29,1638869501.234375
1489,-14.33,1638869501.25
1490,-11.76,1638869501.265625
1491,-10.43,1638869501.28125
1492,-9.65,1638869501.296875
1493,-8.58,1638869501.3125
1494,-6.63,1638869501.328125
1495,-3.76,1638869501.34375
1496,-0.36,1638869501.359375
1497,3.04,1638869501.375
1498,6.02,1638869501.390625
1499,8.35,1638869501.40625
1500,9.91,1638869501.421875
1501,10.56,1638869501.4375
1502,10.12,1638869501.453125
1503,8.61,1638869501.46875
1504,6.43,1638869501.484375
1505,4.41,1638869501.5
1506,3.58,1638869501.515625
1507,4.83,1638869501.53125
1508,8.48,1638869501.546875
1509,14.15,1638869501.5625
1510,20.94,1638869501.578125
1511,27.76,1638869501.59375
1512,33.64,1638869501.609375
1513,37.81,1638869501.625
1514,39.5,1638869501.640625
1515,37.91,1638869501.65625
1516,32.24,1638869501.671875
1517,22.18,1638869501.6875
1518,8.43,1638869501.703125
1519,-7.12,1638869501.71875
1520,-21.78,1638869501.734375
1521,-32.92,1638869501.75
1522,-39.17,1638869501.765625
1523,-40.91,1638869501.78125
1524,-40.03,1638869501.796875
1525,-38.87,1638869501.8125
1526,-38.9,1638869501.828125
1527,-40.01,1638869501.84375
1528,-40.71,1638869501.859375
1529,-39.12,1638869501.875
1530,-34.0,1638869501.890625
1531,-25.4,1638869501.90625
1532,-14.51,1638869501.921875
1533,-3.09,1638869501.9375
1534,7.15,1638869501.953125
1535,14.88,1638869501.96875
1536,19.1,1638869501.984375
1537,19.1,1638869502.0
1538,14.47,1638869502.015625
1539,5.58,1638869502.03125
1540,-6.3,1638869502.046875
1541,-18.98,1638869502.0625
1542,-30.01,1638869502.078125
1543,-37.36,1638869502.09375
1544,-40.13,1638869502.109375
1545,-38.69,1638869502.125
1546,-34.37,1638869502.140625
1547,-28.89,1638869502.15625
1548,-23.75,1638869502.171875
1549,-19.89,1638869502.1875
1550,-17.6,1638869502.203125
1551,-16.73,1638869502.21875
1552,-16.76,1638869502.234375
1553,-16.99,1638869502.25
1554,-16.52,1638869502.265625
1555,-14.42,1638869502.28125
1556,-10.0,1638869502.296875
1557,-3.14,1638869502.3125
1558,5.44,1638869502.328125
1559,14.23,1638869502.34375
1560,21.39,1638869502.359375
1561,25.43,1638869502.375
1562,25.72,1638869502.390625
1563,22.73,1638869502.40625
1564,17.71,1638869502.421875
1565,12.04,1638869502.4375
1566,6.71,1638869502.453125
1567,2.03,1638869502.46875
1568,-2.15,1638869502.484375
1569,-6.05,1638869502.5
1570,-9.76,1638869502.515625
1571,-13.14,1638869502.53125
1572,-16.07,1638869502.546875
1573,-18.49,1638869502.5625
1574,-20.56,1638869502.578125
1575,-22.39,1638869502.59375
1576,-23.87,1638869502.609375
1577,-24.55,1638869502.625
1578,-23.74,1638869502.640625
1579,-20.86,1638869502.65625
1580,-15.78,1638869502.671875
1581,-9.01,1638869502.6875
1582,-1.61,1638869502.703125
1583,5.06,1638869502.71875
1584,9.87,1638869502.734375
1585,12.27,1638869502.75
1586,12.37,1638869502.765625
1587,10.85,1638869502.78125
1588,8.64,1638869502.796875
1589,6.53,1638869502.8125
1590,4.93,1638869502.828125
1591,3.85,1638869502.84375
1592,2.97,1638869502.859375
1593,1.9,1638869502.875
1594,0.28,1638869502.890625
1595,-2.05,1638869502.90625
1596,-5.12,1638869502.921875
1597,-8.76,1638869502.9375
1598,-12.69,1638869502.953125
1599,-16.52,1638869502.96875
1600,-19.88,1638869502.984375
1601,-22.5,1638869503.0
1602,-24.29,1638869503.015625
1603,-25.31,1638869503.03125
1604,-25.68,1638869503.046875
1605,-25.47,1638869503.0625
1606,-24.64,1638869503.078125
1607,-23.16,1638869503.09375
1608,-21.0,1638869503.109375
1609,-18.3,1638869503.125
1610,-15.28,1638869503.140625
1611,-12.24,1638869503.15625
1612,-9.49,1638869503.171875
1613,-7.29,1638869503.1875
1614,-5.86,1638869503.203125
1615,-5.36,1638869503.21875
1616,-5.84,1638869503.234375
1617,-7.12,1638869503.25
1618,-8.38,1638869503.265625
1619,-8.7,1638869503.28125
1620,-7.35,1638869503.296875
1621,-4.23,1638869503.3125
1622,0.08,1638869503.328125
1623,4.63,1638869503.34375
1624,8.53,1638869503.359375
1625,11.34,1638869503.375
1626,13.11,1638869503.390625
1627,14.53,1638869503.40625
1628,16.21,1638869503.421875
1629,18.41,1638869503.4375
1630,20.92,1638869503.453125
1631,23.27,1638869503.46875
1632,25.11,1638869503.484375
1633,26.41,1638869503.5
1634,27.38,1638869503.515625
1635,28.27,1638869503.53125
1636,29.96,1638869503.546875
1637,33.01,1638869503.5625
1638,37.62,1638869503.578125
1639,43.55,1638869503.59375
1640,50.34,1638869503.609375
1641,57.52,1638869503.625
1642,64.72,1638869503.640625
1643,71.58,1638869503.65625
1644,77.71,1638869503.671875
1645,85.04,1638869503.6875
1646,95.17,1638869503.703125
1647,108.84,1638869503.71875
1648,125.33,1638869503.734375
1649,142.74,1638869503.75
1650,159.02,1638869503.765625
1651,172.84,1638869503.78125
1652,183.85,1638869503.796875
1653,192.46,1638869503.8125
1654,204.03,1638869503.828125
1655,222.92,1638869503.84375
1656,250.84,1638869503.859375
1657,285.79,1638869503.875
1658,323.09,1638869503.890625
1659,357.8,1638869503.90625
1660,386.92,1638869503.921875
1661,409.88,1638869503.9375
1662,427.9,1638869503.953125
1663,450.14,1638869503.96875
1664,484.07,1638869503.984375
1665,532.8,1638869504.0
1666,593.35,1638869504.015625
1667,658.18,1638869504.03125
1668,719.03,1638869504.046875
1669,770.19,1638869504.0625
1670,809.65,1638869504.078125
1671,838.37,1638869504.09375
1672,868.69,1638869504.109375
1673,911.82,1638869504.125
1674,973.68,1638869504.140625
1675,1051.77,1638869504.15625
1676,1136.06,1638869504.171875
1677,1213.64,1638869504.1875
1678,1273.9,1638869504.203125
1679,1311.34,1638869504.21875
1680,1265.3,1638869504.234375
1681,1100.53,1638869504.25
1682,812.0,1638869504.265625
1683,432.87,1638869504.28125
1684,21.36,1638869504.296875
1685,-365.89,1638869504.3125
1686,-693.27,1638869504.328125
1687,-948.56,1638869504.34375
1688,-1135.18,1638869504.359375
1689,-1263.72,1638869504.375
1690,-1337.06,1638869504.390625
1691,-1359.31,1638869504.40625
1692,-1337.86,1638869504.421875
1693,-1284.96,1638869504.4375
1694,-1215.88,1638869504.453125
1695,-1144.55,1638869504.46875
1696,-1080.1,1638869504.484375
1697,-1026.19,1638869504.5
1698,-982.85,1638869504.515625
1699,-941.11,1638869504.53125
1700,-893.07,1638869504.546875
1701,-834.89,1638869504.5625
1702,-768.41,1638869504.578125
1703,-699.77,1638869504.59375
1704,-635.82,1638869504.609375
1705,-581.04,1638869504.625
1706,-536.75,1638869504.640625
1707,-502.05,1638869504.65625
1708,-470.45,1638869504.671875
1709,-436.28,1638869504.6875
1710,-396.5,1638869504.703125
1711,-351.85,1638869504.71875
1712,-305.96,1638869504.734375
1713,-263.07,1638869504.75
1714,-226.08,1638869504.765625
1715,-196.06,1638869504.78125
1716,-172.71,1638869504.796875
1717,-152.88,1638869504.8125
1718,-133.97,1638869504.828125
1719,-114.22,1638869504.84375
1720,-93.74,1638869504.859375
1721,-74.12,1638869504.875
1722,-57.16,1638869504.890625
1723,-43.91,1638869504.90625
1724,-34.44,1638869504.921875
1725,-28.11,1638869504.9375
1726,-23.18,1638869504.953125
1727,-18.05,1638869504.96875
1728,-11.59,1638869504.984375
1729,-3.5,1638869505.0
1730,5.58,1638869505.015625
1731,14.91,1638869505.03125
1732,23.88,1638869505.046875
1733,32.24,1638869505.0625
1734,39.93,1638869505.078125
1735,47.09,1638869505.09375
1736,53.9,1638869505.109375
1737,60.67,1638869505.125
1738,67.76,1638869505.140625
1739,74.98,1638869505.15625
1740,82.32,1638869505.171875
1741,89.79,1638869505.1875
1742,97.43,1638869505.203125
1743,105.25,1638869505.21875
1744,113.25,1638869505.234375
1745,121.44,1638869505.25
1746,129.91,1638869505.265625
1747,138.77,1638869505.28125
1748,147.51,1638869505.296875
1749,155.78,1638869505.3125
1750,163.29,1638869505.328125
1751,169.72,1638869505.34375
1752,174.64,1638869505.359375
1753,177.47,1638869505.375
1754,177.31,1638869505.390625
1755,172.64,1638869505.40625
1756,166.16,1638869505.421875
1757,158.17,1638869505.4375
1758,148.83,1638869505.453125
1759,138.95,1638869505.46875
1760,129.03,1638869505.484375
1761,119.14,1638869505.5
1762,109.36,1638869505.515625
1763,99.76,1638869505.53125
1764,90.47,1638869505.546875
1765,81.75,1638869505.5625
1766,72.88,1638869505.578125
1767,63.57,1638869505.59375
1768,54.42,1638869505.609375
1769,45.89,1638869505.625
1770,38.01,1638869505.640625
1771,30.78,1638869505.65625
1772,24.13,1638869505.671875
1773,18.01,1638869505.6875
1774,12.43,1638869505.703125
1775,6.09,1638869505.71875
1776,-1.79,1638869505.734375
1777,-9.95,1638869505.75
1778,-17.58,1638869505.765625
1779,-24.88,1638869505.78125
1780,-32.05,1638869505.796875
1781,-39.3,1638869505.8125
1782,-46.81,1638869505.828125
1783,-54.6,1638869505.84375
1784,-65.24,1638869505.859375
1785,-80.13,1638869505.875
1786,-95.21,1638869505.890625
1787,-107.67,1638869505.90625
1788,-117.52,1638869505.921875
1789,-124.95,1638869505.9375
1790,-130.32,1638869505.953125
1791,-134.13,1638869505.96875
1792,-136.79,1638869505.984375
1793,-143.71,1638869506.0
1794,-158.29,1638869506.015625
1795,-172.85,1638869506.03125
1796,-182.38,1638869506.046875
1797,-187.81,1638869506.0625
1798,-190.37,1638869506.078125
1799,-191.7,1638869506.09375
1800,-193.5,1638869506.109375
1801,-197.1,1638869506.125
1802,-210.99,1638869506.140625
1803,-240.03,1638869506.15625
1804,-271.01,1638869506.171875
1805,-294.84,1638869506.1875
1806,-311.85,1638869506.203125
1807,-323.18,1638869506.21875
1808,-330.82,1638869506.234375
1809,-337.24,1638869506.25
1810,-344.73,1638869506.265625
1811,-365.23,1638869506.28125
1812,-406.2,1638869506.296875
1813,-451.9,1638869506.3125
1814,-492.06,1638869506.328125
1815,-528.52,1638869506.34375
1816,-564.05,1638869506.359375
1817,-601.67,1638869506.375
1818,-644.13,1638869506.390625
1819,-628.59,1638869506.40625
1820,-524.02,1638869506.421875
1821,-434.7,1638869506.4375
1822,-402.16,1638869506.453125
1823,-398.53,1638869506.46875
1824,-408.97,1638869506.484375
1825,-417.68,1638869506.5
1826,-408.23,1638869506.515625
1827,-367.8,1638869506.53125
1828,-291.96,1638869506.546875
1829,-198.75,1638869506.5625
1830,-111.91,1638869506.578125
1831,-35.23,1638869506.59375
1832,25.85,1638869506.609375
1833,62.18,1638869506.625
1834,71.51,1638869506.640625
1835,57.82,1638869506.65625
1836,27.75,1638869506.671875
1837,-11.83,1638869506.6875
1838,-64.2,1638869506.703125
1839,-129.48,1638869506.71875
1840,-188.45,1638869506.734375
1841,-226.49,1638869506.75
1842,-241.35,1638869506.765625
1843,-237.64,1638869506.78125
1844,-222.52,1638869506.796875
1845,-202.51,1638869506.8125
1846,-180.71,1638869506.828125
1847,-163.41,1638869506.84375
1848,-152.1,1638869506.859375
1849,-134.81,1638869506.875
1850,-102.78,1638869506.890625
1851,-43.62,1638869506.90625
1852,38.24,1638869506.921875
1853,125.52,1638869506.9375
1854,197.55,1638869506.953125
1855,254.68,1638869506.96875
1856,300.67,1638869506.984375
1857,334.93,1638869507.0
1858,361.58,1638869507.015625
1859,383.12,1638869507.03125
1860,399.17,1638869507.046875
1861,407.43,1638869507.0625
1862,407.37,1638869507.078125
1863,400.7,1638869507.09375
1864,390.28,1638869507.109375
1865,375.56,1638869507.125
1866,355.58,1638869507.140625
1867,332.61,1638869507.15625
1868,308.9,1638869507.171875
1869,285.73,1638869507.1875
1870,262.54,1638869507.203125
1871,239.69,1638869507.21875
1872,218.62,1638869507.234375
1873,201.3,1638869507.25
1874,187.52,1638869507.265625
1875,176.66,1638869507.28125
1876,169.22,1638869507.296875
1877,166.2,1638869507.3125
1878,168.43,1638869507.328125
1879,175.19,1638869507.34375
1880,185.73,1638869507.359375
1881,199.8,1638869507.375
1882,217.45,1638869507.390625
1883,237.79,1638869507.40625
1884,260.11,1638869507.421875
1885,284.84,1638869507.4375
1886,313.03,1638869507.453125
1887,346.12,1638869507.46875
1888,385.34,1638869507.484375
1889,432.07,1638869507.5
1890,486.87,1638869507.515625
1891,547.89,1638869507.53125
1892,609.14,1638869507.546875
1893,661.64,1638869507.5625
1894,696.2,1638869507.578125
1895,706.45,1638869507.59375
1896,691.34,1638869507.609375
1897,655.27,1638869507.625
1898,606.47,1638869507.640625
1899,553.64,1638869507.65625
1900,502.97,1638869507.671875
1901,456.67,1638869507.6875
1902,414.11,1638869507.703125
1903,373.88,1638869507.71875
1904,335.3,1638869507.734375
1905,298.76,1638869507.75
1906,264.92,1638869507.765625
1907,233.71,1638869507.78125
1908,203.98,1638869507.796875
1909,174.13,1638869507.8125
1910,143.08,1638869507.828125
1911,111.05,1638869507.84375
1912,79.51,1638869507.859375
1913,50.67,1638869507.875
1914,26.3,1638869507.890625
1915,7.05,1638869507.90625
1916,-7.86,1638869507.921875
1917,-20.21,1638869507.9375
1918,-31.99,1638869507.953125
1919,-44.52,1638869507.96875
1920,-57.92,1638869507.984375
1921,-71.19,1638869508.0
1922,-82.78,1638869508.015625
1923,-91.36,1638869508.03125
1924,-96.54,1638869508.046875
1925,-99.0,1638869508.0625
1926,-100.2,1638869508.078125
1927,-101.69,1638869508.09375
1928,-104.34,1638869508.109375
1929,-108.1,1638869508.125
1930,-112.06,1638869508.140625
1931,-115.04,1638869508.15625
1932,-116.35,1638869508.171875
1933,-116.35,1638869508.1875
1934,-116.52,1638869508.203125
1935,-118.93,1638869508.21875
1936,-125.49,1638869508.234375
1937,-137.11,1638869508.25
1938,-153.36,1638869508.265625
1939,-172.76,1638869508.28125
1940,-193.64,1638869508.296875
1941,-214.81,1638869508.3125
1942,-236.31,1638869508.328125
1943,-259.21,1638869508.34375
1944,-285.06,1638869508.359375
1945,-315.34,1638869508.375
1946,-350.83,1638869508.390625
1947,-391.81,1638869508.40625
1948,-437.91,1638869508.421875
1949,-487.85,1638869508.4375
1950,-539.01,1638869508.453125
1951,-587.37,1638869508.46875
1952,-628.19,1638869508.484375
1953,-657.35,1638869508.5
1954,-672.6,1638869508.515625
1955,-673.85,1638869508.53125
1956,-662.38,1638869508.546875
1957,-639.35,1638869508.5625
1958,-604.91,1638869508.578125
1959,-558.59,1638869508.59375
1960,-500.68,1638869508.609375
1961,-433.52,1638869508.625
1962,-361.68,1638869508.640625
1963,-290.48,1638869508.65625
1964,-223.7,1638869508.671875
1965,-161.98,1638869508.6875
1966,-102.76,1638869508.703125
1967,-41.9,1638869508.71875
1968,24.2,1638869508.734375
1969,96.84,1638869508.75
1970,174.28,1638869508.765625
1971,251.81,1638869508.78125
1972,322.33,1638869508.796875
1973,378.04,1638869508.8125
1974,412.02,1638869508.828125
1975,420.2,1638869508.84375
1976,402.69,1638869508.859375
1977,363.45,1638869508.875
1978,308.89,1638869508.890625
1979,245.59,1638869508.90625
1980,178.35,1638869508.921875
1981,109.4,1638869508.9375
1982,38.96,1638869508.953125
1983,-33.24,1638869508.96875
1984,-106.22,1638869508.984375
1985,-176.7,1638869509.0
1986,-239.05,1638869509.015625
1987,-286.69,1638869509.03125
1988,-314.01,1638869509.046875
1989,-318.16,1638869509.0625
1990,-299.96,1638869509.078125
1991,-263.15,1638869509.09375
1992,-212.57,1638869509.109375
1993,-151.84,1638869509.125
1994,-82.52,1638869509.140625
1995,-5.15,1638869509.15625
1996,78.34,1638869509.171875
1997,162.48,1638869509.1875
1998,238.18,1638869509.203125
1999,295.45,1638869509.21875
2000,327.47,1638869509.234375
2001,333.81,1638869509.25
2002,320.8,1638869509.265625
2003,298.96,1638869509.28125
2004,278.95,1638869509.296875
2005,268.13,1638869509.3125
2006,268.98,1638869509.328125
2007,279.44,1638869509.34375
2008,294.8,1638869509.359375
2009,309.68,1638869509.375
2010,319.66,1638869509.390625
2011,322.18,1638869509.40625
2012,316.76,1638869509.421875
2013,304.75,1638869509.4375
2014,288.4,1638869509.453125
2015,269.69,1638869509.46875
2016,249.45,1638869509.484375
2017,227.45,1638869509.5
2018,203.4,1638869509.515625
2019,178.17,1638869509.53125
2020,154.28,1638869509.546875
2021,135.2,1638869509.5625
2022,123.41,1638869509.578125
2023,118.85,1638869509.59375
2024,118.52,1638869509.609375
2025,117.73,1638869509.625
2026,112.39,1638869509.640625
2027,100.85,1638869509.65625
2028,84.92,1638869509.671875
2029,69.35,1638869509.6875
2030,60.32,1638869509.703125
2031,63.27,1638869509.71875
2032,80.94,1638869509.734375
2033,112.17,1638869509.75
2034,151.95,1638869509.765625
2035,192.96,1638869509.78125
2036,227.97,1638869509.796875
2037,252.25,1638869509.8125
2038,264.9,1638869509.828125
2039,268.41,1638869509.84375
2040,266.82,1638869509.859375
2041,263.47,1638869509.875
2042,259.61,1638869509.890625
2043,254.56,1638869509.90625
2044,247.02,1638869509.921875
2045,236.54,1638869509.9375
2046,224.08,1638869509.953125
2047,211.5,1638869509.96875
2048,200.28,1638869509.984375
2049,190.57,1638869510.0
2050,181.08,1638869510.015625
2051,169.83,1638869510.03125
2052,155.35,1638869510.046875
2053,137.59,1638869510.0625
2054,118.05,1638869510.078125
2055,99.24,1638869510.09375
2056,83.56,1638869510.109375
2057,72.23,1638869510.125
2058,64.79,1638869510.140625
2059,59.14,1638869510.15625
2060,52.23,1638869510.171875
2061,40.95,1638869510.1875
2062,23.0,1638869510.203125
2063,-2.71,1638869510.21875
2064,-36.12,1638869510.234375
2065,-76.55,1638869510.25
2066,-123.2,1638869510.265625
2067,-175.44,1638869510.28125
2068,-232.7,1638869510.296875
2069,-294.08,1638869510.3125
2070,-358.04,1638869510.328125
2071,-422.38,1638869510.34375
2072,-484.88,1638869510.359375
2073,-543.99,1638869510.375
2074,-599.14,1638869510.390625
2075,-650.07,1638869510.40625
2076,-695.53,1638869510.421875
2077,-732.33,1638869510.4375
2078,-755.65,1638869510.453125
2079,-760.84,1638869510.46875
2080,-745.49,1638869510.484375
2081,-710.75,1638869510.5
2082,-660.62,1638869510.515625
2083,-600.07,1638869510.53125
2084,-533.08,1638869510.546875
2085,-462.0,1638869510.5625
2086,-388.6,1638869510.578125
2087,-315.72,1638869510.59375
2088,-248.01,1638869510.609375
2089,-190.94,1638869510.625
2090,-148.61,1638869510.640625
2091,-121.83,1638869510.65625
2092,-107.85,1638869510.671875
2093,-101.83,1638869510.6875
2094,-99.2,1638869510.703125
2095,-97.04,1638869510.71875
2096,-94.09,1638869510.734375
2097,-89.62,1638869510.75
2098,-82.51,1638869510.765625
2099,-71.08,1638869510.78125
2100,-54.16,1638869510.796875
2101,-32.37,1638869510.8125
2102,-8.67,1638869510.828125
2103,12.3,1638869510.84375
2104,25.95,1638869510.859375
2105,29.64,1638869510.875
2106,23.71,1638869510.890625
2107,11.37,1638869510.90625
2108,-2.56,1638869510.921875
2109,-13.55,1638869510.9375
2110,-18.85,1638869510.953125
2111,-18.19,1638869510.96875
2112,-13.48,1638869510.984375
2113,-7.67,1638869511.0
2114,-3.47,1638869511.015625
2115,-2.42,1638869511.03125
2116,-4.57,1638869511.046875
2117,-8.74,1638869511.0625
2118,-13.25,1638869511.078125
2119,-16.5,1638869511.09375
2120,-17.48,1638869511.109375
2121,-15.81,1638869511.125
2122,-11.6,1638869511.140625
2123,-5.26,1638869511.15625
2124,2.67,1638869511.171875
2125,11.39,1638869511.1875
2126,19.83,1638869511.203125
2127,26.6,1638869511.21875
2128,30.36,1638869511.234375
2129,30.2,1638869511.25
2130,25.99,1638869511.265625
2131,18.58,1638869511.28125
2132,9.42,1638869511.296875
2133,0.06,1638869511.3125
2134,-8.39,1638869511.328125
2135,-15.42,1638869511.34375
2136,-20.98,1638869511.359375
2137,-24.99,1638869511.375
2138,-27.09,1638869511.390625
2139,-26.67,1638869511.40625
2140,-23.09,1638869511.421875
2141,-16.17,1638869511.4375
2142,-6.33,1638869511.453125
2143,5.38,1638869511.46875
2144,17.57,1638869511.484375
2145,28.7,1638869511.5
2146,37.29,1638869511.515625
2147,42.03,1638869511.53125
2148,42.05,1638869511.546875
2149,37.18,1638869511.5625
2150,28.19,1638869511.578125
2151,16.73,1638869511.59375
2152,5.0,1638869511.609375
2153,-4.88,1638869511.625
2154,-11.54,1638869511.640625
2155,-14.64,1638869511.65625
2156,-14.85,1638869511.671875
2157,-13.35,1638869511.6875
2158,-11.33,1638869511.703125
2159,-9.56,1638869511.71875
2160,-8.26,1638869511.734375
2161,-7.26,1638869511.75
2162,-6.35,1638869511.765625
2163,-5.4,1638869511.78125
2164,-4.5,1638869511.796875
2165,-3.77,1638869511.8125
2166,-3.3,1638869511.828125
2167,-2.93,1638869511.84375
2168,-2.35,1638869511.859375
2169,-1.12,1638869511.875
2170,1.03,1638869511.890625
2171,4.17,1638869511.90625
2172,8.1,1638869511.921875
2173,12.34,1638869511.9375
2174,16.39,1638869511.953125
2175,19.73,1638869511.96875
2176,22.01,1638869511.984375
2177,23.08,1638869512.0
2178,22.91,1638869512.015625
2179,21.63,1638869512.03125
2180,19.44,1638869512.046875
2181,16.61,1638869512.0625
2182,13.43,1638869512.078125
2183,10.32,1638869512.09375
2184,7.71,1638869512.109375
2185,6.09,1638869512.125
2186,5.79,1638869512.140625
2187,6.96,1638869512.15625
2188,9.47,1638869512.171875
2189,12.9,1638869512.1875
2190,16.71,1638869512.203125
2191,20.38,1638869512.21875
2192,23.6,1638869512.234375
2193,26.36,1638869512.25
2194,28.92,1638869512.265625
2195,31.66,1638869512.28125
2196,34.78,1638869512.296875
2197,38.18,1638869512.3125
2198,41.46,1638869512.328125
2199,44.0,1638869512.34375
2200,45.24,1638869512.359375
2201,44.86,1638869512.375
2202,42.86,1638869512.390625
2203,39.46,1638869512.40625
2204,35.01,1638869512.421875
2205,29.84,1638869512.4375
2206,24.21,1638869512.453125
2207,18.41,1638869512.46875
2208,12.8,1638869512.484375
2209,7.86,1638869512.5
2210,4.14,1638869512.515625
2211,2.03,1638869512.53125
2212,1.66,1638869512.546875
2213,2.75,1638869512.5625
2214,4.66,1638869512.578125
2215,6.59,1638869512.59375
2216,7.82,1638869512.609375
2217,8.0,1638869512.625
2218,7.15,1638869512.640625
2219,5.67,1638869512.65625
2220,4.04,1638869512.671875
2221,2.73,1638869512.6875
2222,1.99,1638869512.703125
2223,1.91,1638869512.71875
2224,2.51,1638869512.734375
2225,3.72,1638869512.75
2226,5.41,1638869512.765625
2227,7.39,1638869512.78125
2228,9.37,1638869512.796875
2229,11.08,1638869512.8125
2230,12.27,1638869512.828125
2231,12.9,1638869512.84375
2232,13.04,1638869512.859375
2233,12.86,1638869512.875
2234,12.49,1638869512.890625
2235,11.97,1638869512.90625
2236,11.29,1638869512.921875
2237,10.45,1638869512.9375
2238,9.51,1638869512.953125
2239,8.59,1638869512.96875
2240,7.84,1638869512.984375
2241,7.47,1638869513.0
2242,7.71,1638869513.015625
2243,8.75,1638869513.03125
2244,10.65,1638869513.046875
2245,13.2,1638869513.0625
2246,15.94,1638869513.078125
2247,18.24,1638869513.09375
2248,19.55,1638869513.109375
2249,19.68,1638869513.125
2250,18.81,1638869513.140625
2251,17.37,1638869513.15625
2252,15.84,1638869513.171875
2253,14.5,1638869513.1875
2254,13.4,1638869513.203125
2255,12.47,1638869513.21875
2256,11.67,1638869513.234375
2257,10.98,1638869513.25
2258,10.37,1638869513.265625
2259,9.66,1638869513.28125
2260,8.58,1638869513.296875
2261,6.82,1638869513.3125
2262,4.3,1638869513.328125
2263,1.19,1638869513.34375
2264,-2.17,1638869513.359375
2265,-5.34,1638869513.375
2266,-8.02,1638869513.390625
2267,-9.96,1638869513.40625
2268,-11.01,1638869513.421875
2269,-11.04,1638869513.4375
2270,-9.95,1638869513.453125
2271,-7.81,1638869513.46875
2272,-4.94,1638869513.484375
2273,-1.86,1638869513.5
2274,0.85,1638869513.515625
2275,2.84,1638869513.53125
2276,4.05,1638869513.546875
2277,4.7,1638869513.5625
2278,5.13,1638869513.578125
2279,5.6,1638869513.59375
2280,6.22,1638869513.609375
2281,6.93,1638869513.625
2282,7.66,1638869513.640625
2283,8.38,1638869513.65625
2284,9.14,1638869513.671875
2285,9.94,1638869513.6875
2286,10.74,1638869513.703125
2287,11.45,1638869513.71875
2288,11.99,1638869513.734375
2289,12.42,1638869513.75
2290,12.89,1638869513.765625
2291,13.6,1638869513.78125
2292,14.65,1638869513.796875
2293,15.98,1638869513.8125
2294,17.4,1638869513.828125
2295,18.62,1638869513.84375
2296,19.48,1638869513.859375
2297,19.89,1638869513.875
2298,19.9,1638869513.890625
2299,19.6,1638869513.90625
2300,19.17,1638869513.921875
2301,18.77,1638869513.9375
2302,18.58,1638869513.953125
2303,18.68,1638869513.96875
2304,19.02,1638869513.984375
2305,19.38,1638869514.0
2306,19.4,1638869514.015625
2307,18.75,1638869514.03125
2308,17.26,1638869514.046875
2309,15.06,1638869514.0625
2310,12.51,1638869514.078125
2311,10.08,1638869514.09375
2312,8.17,1638869514.109375
2313,7.07,1638869514.125
2314,6.86,1638869514.140625
2315,7.42,1638869514.15625
2316,8.48,1638869514.171875
2317,9.69,1638869514.1875
2318,10.62,1638869514.203125
2319,10.87,1638869514.21875
2320,10.16,1638869514.234375
2321,8.41,1638869514.25
2322,5.76,1638869514.265625
2323,2.55,1638869514.28125
2324,-0.87,1638869514.296875
2325,-4.12,1638869514.3125
2326,-6.97,1638869514.328125
2327,-9.34,1638869514.34375
2328,-11.23,1638869514.359375
2329,-12.71,1638869514.375
2330,-13.9,1638869514.390625
2331,-14.86,1638869514.40625
2332,-15.6,1638869514.421875
2333,-16.1,1638869514.4375
2334,-16.21,1638869514.453125
2335,-15.75,1638869514.46875
2336,-14.57,1638869514.484375
2337,-12.6,1638869514.5
2338,-10.0,1638869514.515625
2339,-7.12,1638869514.53125
2340,-4.45,1638869514.546875
2341,-2.38,1638869514.5625
2342,-1.07,1638869514.578125
2343,-0.32,1638869514.59375
2344,0.31,1638869514.609375
2345,1.43,1638869514.625
2346,3.53,1638869514.640625
2347,6.91,1638869514.65625
2348,11.62,1638869514.671875
2349,17.49,1638869514.6875
2350,24.29,1638869514.703125
2351,31.71,1638869514.71875
2352,39.39,1638869514.734375
2353,46.82,1638869514.75
2354,53.48,1638869514.765625
2355,58.85,1638869514.78125
2356,62.62,1638869514.796875
2357,64.75,1638869514.8125
2358,65.45,1638869514.828125
2359,65.11,1638869514.84375
2360,64.06,1638869514.859375
2361,62.53,1638869514.875
2362,60.66,1638869514.890625
2363,58.56,1638869514.90625
2364,56.42,1638869514.921875
2365,54.48,1638869514.9375
2366,52.96,1638869514.953125
2367,51.91,1638869514.96875
2368,51.12,1638869514.984375
2369,50.12,1638869515.0
2370,48.31,1638869515.015625
2371,45.2,1638869515.03125
2372,40.61,1638869515.046875
2373,34.76,1638869515.0625
2374,28.17,1638869515.078125
2375,21.57,1638869515.09375
2376,15.57,1638869515.109375
2377,10.53,1638869515.125
2378,6.47,1638869515.140625
2379,3.18,1638869515.15625
2380,0.41,1638869515.171875
2381,-1.93,1638869515.1875
2382,-3.71,1638869515.203125
2383,-4.71,1638869515.21875
2384,-4.75,1638869515.234375
2385,-3.86,1638869515.25
2386,-2.36,1638869515.265625
2387,-0.7,1638869515.28125
2388,0.64,1638869515.296875
2389,1.3,1638869515.3125
2390,1.15,1638869515.328125
2391,0.27,1638869515.34375
2392,-1.12,1638869515.359375
2393,-2.71,1638869515.375
2394,-4.19,1638869515.390625
2395,-5.33,1638869515.40625
2396,-6.02,1638869515.421875
2397,-6.29,1638869515.4375
2398,-6.35,1638869515.453125
2399,-6.58,1638869515.46875
2400,-7.39,1638869515.484375
2401,-9.23,1638869515.5
2402,-12.36,1638869515.515625
2403,-16.8,1638869515.53125
2404,-22.23,1638869515.546875
2405,-28.1,1638869515.5625
2406,-33.81,1638869515.578125
2407,-38.98,1638869515.59375
2408,-43.6,1638869515.609375
2409,-47.96,1638869515.625
2410,-52.35,1638869515.640625
2411,-56.67,1638869515.65625
2412,-60.39,1638869515.671875
2413,-62.7,1638869515.6875
2414,-62.91,1638869515.703125
2415,-60.91,1638869515.71875
2416,-57.33,1638869515.734375
2417,-53.28,1638869515.75
2418,-49.95,1638869515.765625
2419,-48.06,1638869515.78125
2420,-47.67,1638869515.796875
2421,-48.24,1638869515.8125
2422,-48.96,1638869515.828125
2423,-49.08,1638869515.84375
2424,-48.13,1638869515.859375
2425,-46.04,1638869515.875
2426,-43.06,1638869515.890625
2427,-39.73,1638869515.90625
2428,-36.73,1638869515.921875
2429,-34.74,1638869515.9375
2430,-34.26,1638869515.953125
2431,-35.51,1638869515.96875
2432,-38.3,1638869515.984375
2433,-42.22,1638869516.0
2434,-46.7,1638869516.015625
2435,-51.26,1638869516.03125
2436,-55.65,1638869516.046875
2437,-59.83,1638869516.0625
2438,-63.92,1638869516.078125
2439,-68.01,1638869516.09375
2440,-71.99,1638869516.109375
2441,-75.45,1638869516.125
2442,-77.61,1638869516.140625
2443,-77.25,1638869516.15625
2444,-72.89,1638869516.171875
2445,-63.05,1638869516.1875
2446,-46.84,1638869516.203125
2447,-24.37,1638869516.21875
2448,2.87,1638869516.234375
2449,32.14,1638869516.25
2450,59.97,1638869516.265625
2451,83.12,1638869516.28125
2452,99.32,1638869516.296875
2453,107.82,1638869516.3125
2454,109.26,1638869516.328125
2455,105.18,1638869516.34375
2456,97.43,1638869516.359375
2457,87.71,1638869516.375
2458,77.47,1638869516.390625
2459,67.9,1638869516.40625
2460,60.0,1638869516.421875
2461,54.4,1638869516.4375
2462,51.23,1638869516.453125
2463,50.04,1638869516.46875
2464,49.89,1638869516.484375
2465,49.69,1638869516.5
2466,48.63,1638869516.515625
2467,46.45,1638869516.53125
2468,43.42,1638869516.546875
2469,40.2,1638869516.5625
2470,37.43,1638869516.578125
2471,35.52,1638869516.59375
2472,34.47,1638869516.609375
2473,33.96,1638869516.625
2474,33.54,1638869516.640625
2475,32.85,1638869516.65625
2476,31.7,1638869516.671875
2477,30.1,1638869516.6875
2478,28.23,1638869516.703125
2479,26.35,1638869516.71875
2480,24.73,1638869516.734375
2481,23.71,1638869516.75
2482,23.53,1638869516.765625
2483,24.32,1638869516.78125
2484,25.93,1638869516.796875
2485,27.97,1638869516.8125
2486,29.85,1638869516.828125
2487,31.05,1638869516.84375
2488,31.35,1638869516.859375
2489,30.98,1638869516.875
2490,30.58,1638869516.890625
2491,30.85,1638869516.90625
2492,32.21,1638869516.921875
2493,34.52,1638869516.9375
2494,37.11,1638869516.953125
2495,39.06,1638869516.96875
2496,39.6,1638869516.984375
2497,38.42,1638869517.0
2498,35.65,1638869517.015625
2499,31.72,1638869517.03125
2500,27.06,1638869517.046875
2501,21.82,1638869517.0625
2502,15.99,1638869517.078125
2503,9.49,1638869517.09375
2504,2.52,1638869517.109375
2505,-4.3,1638869517.125
2506,-10.03,1638869517.140625
2507,-13.7,1638869517.15625
2508,-14.77,1638869517.171875
2509,-13.32,1638869517.1875
2510,-10.08,1638869517.203125
2511,-6.13,1638869517.21875
2512,-2.54,1638869517.234375
2513,0.03,1638869517.25
2514,1.43,1638869517.265625
2515,1.97,1638869517.28125
2516,2.18,1638869517.296875
2517,2.57,1638869517.3125
2518,3.4,1638869517.328125
2519,4.63,1638869517.34375
2520,5.97,1638869517.359375
2521,6.99,1638869517.375
2522,7.24,1638869517.390625
2523,6.41,1638869517.40625
2524,4.4,1638869517.421875
2525,1.35,1638869517.4375
2526,-2.41,1638869517.453125
2527,-6.53,1638869517.46875
2528,-10.68,1638869517.484375
2529,-14.61,1638869517.5
2530,-18.12,1638869517.515625
2531,-20.91,1638869517.53125
2532,-22.66,1638869517.546875
2533,-23.15,1638869517.5625
2534,-22.42,1638869517.578125
2535,-20.84,1638869517.59375
2536,-19.05,1638869517.609375
2537,-17.72,1638869517.625
2538,-17.21,1638869517.640625
2539,-17.5,1638869517.65625
2540,-18.21,1638869517.671875
2541,-18.84,1638869517.6875
2542,-19.01,1638869517.703125
2543,-18.67,1638869517.71875
2544,-18.03,1638869517.734375
2545,-17.4,1638869517.75
2546,-17.0,1638869517.765625
2547,-16.82,1638869517.78125
2548,-16.64,1638869517.796875
2549,-16.12,1638869517.8125
2550,-15.03,1638869517.828125
2551,-13.42,1638869517.84375
2552,-11.64,1638869517.859375
2553,-10.22,1638869517.875
2554,-9.58,1638869517.890625
2555,-9.82,1638869517.90625
2556,-10.61,1638869517.921875
2557,-11.29,1638869517.9375
2558,-11.24,1638869517.953125
2559,-10.21,1638869517.96875
2560,-8.48,1638869517.984375
2561,-6.68,1638869518.0
2562,-5.46,1638869518.015625
2563,-5.11,1638869518.03125
2564,-5.39,1638869518.046875
2565,-5.73,1638869518.0625
2566,-5.53,1638869518.078125
2567,-4.43,1638869518.09375
2568,-2.51,1638869518.109375
2569,-0.11,1638869518.125
2570,2.39,1638869518.140625
2571,4.69,1638869518.15625
2572,6.72,1638869518.171875
2573,8.47,1638869518.1875
2574,9.98,1638869518.203125
2575,11.21,1638869518.21875
2576,12.12,1638869518.234375
2577,12.74,1638869518.25
2578,13.23,1638869518.265625
2579,13.76,1638869518.28125
2580,14.45,1638869518.296875
2581,15.22,1638869518.3125
2582,15.8,1638869518.328125
2583,15.81,1638869518.34375
2584,14.99,1638869518.359375
2585,13.3,1638869518.375
2586,11.04,1638869518.390625
2587,8.69,1638869518.40625
2588,6.77,1638869518.421875
2589,5.62,1638869518.4375
2590,5.34,1638869518.453125
2591,5.75,1638869518.46875
2592,6.55,1638869518.484375
2593,7.42,1638869518.5
2594,8.12,1638869518.515625
2595,8.57,1638869518.53125
2596,8.77,1638869518.546875
2597,8.76,1638869518.5625
2598,8.55,1638869518.578125
2599,8.17,1638869518.59375
2600,7.65,1638869518.609375
2601,7.04,1638869518.625
2602,6.49,1638869518.640625
2603,6.13,1638869518.65625
2604,6.02,1638869518.671875
2605,6.13,1638869518.6875
2606,6.29,1638869518.703125
2607,6.25,1638869518.71875
2608,5.85,1638869518.734375
2609,5.06,1638869518.75
2610,4.06,1638869518.765625
2611,3.08,1638869518.78125
2612,2.32,1638869518.796875
2613,1.83,1638869518.8125
2614,1.55,1638869518.828125
2615,1.37,1638869518.84375
2616,1.24,1638869518.859375
2617,1.22,1638869518.875
2618,1.47,1638869518.890625
2619,2.07,1638869518.90625
2620,3.05,1638869518.921875
2621,4.28,1638869518.9375
2622,5.55,1638869518.953125
2623,6.63,1638869518.96875
2624,7.27,1638869518.984375
2625,7.32,1638869519.0
2626,6.76,1638869519.015625
2627,5.68,1638869519.03125
2628,4.29,1638869519.046875
2629,2.88,1638869519.0625
2630,1.65,1638869519.078125
2631,0.68,1638869519.09375
2632,-0.04,1638869519.109375
2633,-0.66,1638869519.125
2634,-1.25,1638869519.140625
2635,-1.81,1638869519.15625
2636,-2.29,1638869519.171875
2637,-2.6,1638869519.1875
2638,-2.72,1638869519.203125
2639,-2.7,1638869519.21875
2640,-2.64,1638869519.234375
2641,-2.68,1638869519.25
2642,-2.95,1638869519.265625
2643,-3.45,1638869519.28125
2644,-4.16,1638869519.296875
2645,-4.97,1638869519.3125
2646,-5.8,1638869519.328125
2647,-6.6,1638869519.34375
2648,-7.45,1638869519.359375
2649,-8.46,1638869519.375
2650,-9.75,1638869519.390625
2651,-11.25,1638869519.40625
2652,-12.74,1638869519.421875
2653,-13.84,1638869519.4375
2654,-14.14,1638869519.453125
2655,-13.36,1638869519.46875
2656,-11.48,1638869519.484375
2657,-8.78,1638869519.5
2658,-5.71,1638869519.515625
2659,-2.81,1638869519.53125
2660,-0.51,1638869519.546875
2661,0.98,1638869519.5625
2662,1.65,1638869519.578125
2663,1.74,1638869519.59375
2664,1.61,1638869519.609375
2665,1.62,1638869519.625
2666,1.95,1638869519.640625
2667,2.63,1638869519.65625
2668,3.55,1638869519.671875
2669,4.57,1638869519.6875
2670,5.58,1638869519.703125
2671,6.55,1638869519.71875
2672,7.51,1638869519.734375
2673,8.43,1638869519.75
2674,9.17,1638869519.765625
2675,9.54,1638869519.78125
2676,9.3,1638869519.796875
2677,8.25,1638869519.8125
2678,6.27,1638869519.828125
2679,3.4,1638869519.84375
2680,-0.18,1638869519.859375
2681,-4.05,1638869519.875
2682,-7.64,1638869519.890625
2683,-10.2,1638869519.90625
2684,-11.15,1638869519.921875
2685,-10.22,1638869519.9375
2686,-7.71,1638869519.953125
2687,-4.39,1638869519.96875
2688,-1.25,1638869519.984375
2689,0.85,1638869520.0
2690,1.56,1638869520.015625
2691,1.16,1638869520.03125
2692,0.29,1638869520.046875
2693,-0.3,1638869520.0625
2694,-0.22,1638869520.078125
2695,0.47,1638869520.09375
2696,1.33,1638869520.109375
2697,1.84,1638869520.125
2698,1.69,1638869520.140625
2699,0.93,1638869520.15625
2700,-0.05,1638869520.171875
2701,-0.81,1638869520.1875
2702,-1.01,1638869520.203125
2703,-0.69,1638869520.21875
2704,-0.18,1638869520.234375
2705,0.04,1638869520.25
2706,-0.45,1638869520.265625
2707,-1.75,1638869520.28125
2708,-3.61,1638869520.296875
2709,-5.6,1638869520.3125
2710,-7.28,1638869520.328125
2711,-8.43,1638869520.34375
2712,-9.09,1638869520.359375
2713,-9.4,1638869520.375
2714,-9.51,1638869520.390625
2715,-9.37,1638869520.40625
2716,-8.79,1638869520.421875
2717,-7.64,1638869520.4375
2718,-6.01,1638869520.453125
2719,-4.25,1638869520.46875
2720,-2.84,1638869520.484375
2721,-2.18,1638869520.5
2722,-2.35,1638869520.515625
2723,-3.04,1638869520.53125
2724,-3.77,1638869520.546875
2725,-4.12,1638869520.5625
2726,-3.95,1638869520.578125
2727,-3.47,1638869520.59375
2728,-3.04,1638869520.609375
2729,-2.89,1638869520.625
2730,-2.96,1638869520.640625
2731,-2.86,1638869520.65625
2732,-2.13,1638869520.671875
2733,-0.5,1638869520.6875
2734,1.82,1638869520.703125
2735,4.16,1638869520.71875
2736,5.63,1638869520.734375
2737,5.41,1638869520.75
2738,3.09,1638869520.765625
2739,-1.21,1638869520.78125
2740,-6.86,1638869520.796875
2741,-13.02,1638869520.8125
2742,-18.82,1638869520.828125
2743,-23.62,1638869520.84375
2744,-27.2,1638869520.859375
2745,-29.76,1638869520.875
2746,-31.87,1638869520.890625
2747,-34.28,1638869520.90625
2748,-37.61,1638869520.921875
2749,-41.94,1638869520.9375
2750,-46.59,1638869520.953125
2751,-50.23,1638869520.96875
2752,-51.13,1638869520.984375
2753,-47.82,1638869521.0
2754,-39.59,1638869521.015625
2755,-26.81,1638869521.03125
2756,-10.86,1638869521.046875
2757,6.2,1638869521.0625
2758,22.27,1638869521.078125
2759,35.65,1638869521.09375
2760,45.37,1638869521.109375
2761,51.25,1638869521.125
2762,53.81,1638869521.140625
2763,53.93,1638869521.15625
2764,52.62,1638869521.171875
2765,50.76,1638869521.1875
2766,48.92,1638869521.203125
2767,47.35,1638869521.21875
2768,45.94,1638869521.234375
2769,44.38,1638869521.25
2770,42.32,1638869521.265625
2771,39.43,1638869521.28125
2772,35.5,1638869521.296875
2773,30.54,1638869521.3125
2774,24.71,1638869521.328125
2775,18.39,1638869521.34375
2776,12.09,1638869521.359375
2777,6.35,1638869521.375
2778,1.56,1638869521.390625
2779,-2.1,1638869521.40625
2780,-4.77,1638869521.421875
2781,-6.82,1638869521.4375
2782,-8.57,1638869521.453125
2783,-10.22,1638869521.46875
2784,-11.71,1638869521.484375
2785,-12.76,1638869521.5
2786,-13.13,1638869521.515625
2787,-12.7,1638869521.53125
2788,-11.62,1638869521.546875
2789,-10.13,1638869521.5625
2790,-8.46,1638869521.578125
2791,-6.74,1638869521.59375
2792,-4.98,1638869521.609375
2793,-3.21,1638869521.625
2794,-1.48,1638869521.640625
2795,0.04,1638869521.65625
2796,1.23,1638869521.671875
2797,2.08,1638869521.6875
2798,2.7,1638869521.703125
2799,3.31,1638869521.71875
2800,4.09,1638869521.734375
2801,5.12,1638869521.75
2802,6.27,1638869521.765625
2803,7.37,1638869521.78125
2804,8.18,1638869521.796875
2805,8.59,1638869521.8125
2806,8.6,1638869521.828125
2807,8.32,1638869521.84375
2808,7.97,1638869521.859375
2809,7.76,1638869521.875
2810,7.91,1638869521.890625
2811,8.53,1638869521.90625
2812,9.69,1638869521.921875
2813,11.29,1638869521.9375
2814,13.12,1638869521.953125
2815,14.94,1638869521.96875
2816,16.48,1638869521.984375
2817,17.55,1638869522.0
2818,18.15,1638869522.015625
2819,18.45,1638869522.03125
2820,18.67,1638869522.046875
2821,18.99,1638869522.0625
2822,19.45,1638869522.078125
2823,19.98,1638869522.09375
2824,20.48,1638869522.109375
2825,20.94,1638869522.125
2826,21.48,1638869522.140625
2827,22.28,1638869522.15625
2828,23.37,1638869522.171875
2829,24.55,1638869522.1875
2830,25.34,1638869522.203125
2831,25.14,1638869522.21875
2832,23.48,1638869522.234375
2833,20.25,1638869522.25
2834,15.67,1638869522.265625
2835,10.24,1638869522.28125
2836,4.6,1638869522.296875
2837,-0.77,1638869522.3125
2838,-5.57,1638869522.328125
2839,-9.71,1638869522.34375
2840,-13.24,1638869522.359375
2841,-16.12,1638869522.375
2842,-18.25,1638869522.390625
2843,-19.44,1638869522.40625
2844,-19.59,1638869522.421875
2845,-18.85,1638869522.4375
2846,-17.67,1638869522.453125
2847,-16.69,1638869522.46875
2848,-16.44,1638869522.484375
2849,-17.11,1638869522.5
2850,-18.29,1638869522.515625
2851,-19.18,1638869522.53125
2852,-18.92,1638869522.546875
2853,-17.03,1638869522.5625
2854,-13.64,1638869522.578125
2855,-9.51,1638869522.59375
2856,-5.59,1638869522.609375
2857,-2.7,1638869522.625
2858,-1.2,1638869522.640625
2859,-0.91,1638869522.65625
2860,-1.35,1638869522.671875
2861,-2.04,1638869522.6875
2862,-2.7,1638869522.703125
2863,-3.35,1638869522.71875
2864,-4.16,1638869522.734375
2865,-5.25,1638869522.75
2866,-6.63,1638869522.765625
2867,-8.11,1638869522.78125
2868,-9.5,1638869522.796875
2869,-10.62,1638869522.8125
2870,-11.44,1638869522.828125
2871,-11.93,1638869522.84375
2872,-12.02,1638869522.859375
2873,-11.57,1638869522.875
2874,-10.39,1638869522.890625
2875,-8.44,1638869522.90625
2876,-5.86,1638869522.921875
2877,-2.95,1638869522.9375
2878,-0.17,1638869522.953125
2879,2.07,1638869522.96875
2880,3.56,1638869522.984375
2881,4.35,1638869523.0
2882,4.68,1638869523.015625
2883,4.93,1638869523.03125
2884,5.44,1638869523.046875
2885,6.38,1638869523.0625
2886,7.78,1638869523.078125
2887,9.45,1638869523.09375
2888,11.14,1638869523.109375
2889,12.59,1638869523.125
2890,13.61,1638869523.140625
2891,14.08,1638869523.15625
2892,13.97,1638869523.171875
2893,13.28,1638869523.1875
2894,12.01,1638869523.203125
2895,10.26,1638869523.21875
2896,8.18,1638869523.234375
2897,6.01,1638869523.25
2898,4.0,1638869523.265625
2899,2.37,1638869523.28125
2900,1.18,1638869523.296875
2901,0.29,1638869523.3125
2902,-0.6,1638869523.328125
2903,-1.87,1638869523.34375
2904,-3.84,1638869523.359375
2905,-6.6,1638869523.375
2906,-9.87,1638869523.390625
2907,-13.08,1638869523.40625
2908,-15.52,1638869523.421875
2909,-16.61,1638869523.4375
2910,-16.17,1638869523.453125
2911,-14.51,1638869523.46875
2912,-12.25,1638869523.484375
2913,-10.04,1638869523.5
2914,-8.28,1638869523.515625
2915,-7.06,1638869523.53125
2916,-6.13,1638869523.546875
2917,-5.29,1638869523.5625
2918,-4.45,1638869523.578125
2919,-3.75,1638869523.59375
2920,-3.37,1638869523.609375
2921,-3.36,1638869523.625
2922,-3.52,1638869523.640625
2923,-3.43,1638869523.65625
2924,-2.74,1638869523.671875
2925,-1.27,1638869523.6875
2926,0.79,1638869523.703125
2927,3.02,1638869523.71875
2928,4.99,1638869523.734375
2929,6.48,1638869523.75
2930,7.49,1638869523.765625
2931,8.24,1638869523.78125
2932,8.97,1638869523.796875
2933,9.79,1638869523.8125
2934,10.68,1638869523.828125
2935,11.49,1638869523.84375
2936,12.07,1638869523.859375
2937,12.33,1638869523.875
2938,12.25,1638869523.890625
2939,11.89,1638869523.90625
2940,11.36,1638869523.921875
2941,10.81,1638869523.9375
2942,10.36,1638869523.953125
2943,10.11,1638869523.96875
2944,10.05,1638869523.984375
2945,10.08,1638869524.0
2946,10.03,1638869524.015625
2947,9.76,1638869524.03125
2948,9.25,1638869524.046875
2949,8.6,1638869524.0625
2950,8.02,1638869524.078125
2951,7.71,1638869524.09375
2952,7.73,1638869524.109375
2953,8.02,1638869524.125
2954,8.37,1638869524.140625
2955,8.64,1638869524.15625
2956,8.68,1638869524.171875
2957,8.49,1638869524.1875
2958,8.06,1638869524.203125
2959,7.43,1638869524.21875
2960,6.56,1638869524.234375
2961,5.39,1638869524.25
2962,3.89,1638869524.265625
2963,2.05,1638869524.28125
2964,-0.05,1638869524.296875
2965,-2.32,1638869524.3125
2966,-4.64,1638869524.328125
2967,-6.92,1638869524.34375
2968,-9.09,1638869524.359375
2969,-11.08,1638869524.375
2970,-12.83,1638869524.390625
2971,-14.26,1638869524.40625
2972,-15.35,1638869524.421875
2973,-16.1,1638869524.4375
2974,-16.62,1638869524.453125
2975,-17.01,1638869524.46875
2976,-17.38,1638869524.484375
2977,-17.69,1638869524.5
2978,-17.77,1638869524.515625
2979,-17.31,1638869524.53125
2980,-16.0,1638869524.546875
2981,-13.69,1638869524.5625
2982,-10.53,1638869524.578125
2983,-6.88,1638869524.59375
2984,-3.28,1638869524.609375
2985,-0.23,1638869524.625
2986,1.97,1638869524.640625
2987,3.32,1638869524.65625
2988,4.0,1638869524.671875
2989,4.28,1638869524.6875
2990,4.39,1638869524.703125
2991,4.53,1638869524.71875
2992,4.87,1638869524.734375
2993,5.52,1638869524.75
2994,6.53,1638869524.765625
2995,7.83,1638869524.78125
2996,9.16,1638869524.796875
2997,10.21,1638869524.8125
2998,10.69,1638869524.828125
2999,10.51,1638869524.84375
3000,9.72,1638869524.859375
3001,8.59,1638869524.875
3002,7.33,1638869524.890625
3003,6.13,1638869524.90625
3004,5.08,1638869524.921875
3005,4.24,1638869524.9375
3006,3.68,1638869524.953125
3007,3.43,1638869524.96875
3008,3.44,1638869524.984375
3009,3.59,1638869525.0
3010,3.79,1638869525.015625
3011,4.04,1638869525.03125
3012,4.47,1638869525.046875
3013,5.34,1638869525.0625
3014,6.86,1638869525.078125
3015,9.04,1638869525.09375
3016,11.65,1638869525.109375
3017,14.28,1638869525.125
3018,16.45,1638869525.140625
3019,17.73,1638869525.15625
3020,17.9,1638869525.171875
3021,16.92,1638869525.1875
3022,14.95,1638869525.203125
3023,12.29,1638869525.21875
3024,9.29,1638869525.234375
3025,6.29,1638869525.25
3026,3.48,1638869525.265625
3027,0.97,1638869525.28125
3028,-1.3,1638869525.296875
3029,-3.34,1638869525.3125
3030,-5.08,1638869525.328125
3031,-6.28,1638869525.34375
3032,-6.6,1638869525.359375
3033,-5.75,1638869525.375
3034,-3.57,1638869525.390625
3035,-0.21,1638869525.40625
3036,3.87,1638869525.421875
3037,7.9,1638869525.4375
3038,10.93,1638869525.453125
3039,11.95,1638869525.46875
3040,10.18,1638869525.484375
3041,5.32,1638869525.5
3042,-2.29,1638869525.515625
3043,-11.71,1638869525.53125
3044,-21.6,1638869525.546875
3045,-30.65,1638869525.5625
3046,-37.82,1638869525.578125
3047,-42.65,1638869525.59375
3048,-45.16,1638869525.609375
3049,-45.74,1638869525.625
3050,-44.84,1638869525.640625
3051,-42.93,1638869525.65625
3052,-40.31,1638869525.671875
3053,-37.21,1638869525.6875
3054,-33.76,1638869525.703125
3055,-29.99,1638869525.71875
3056,-25.88,1638869525.734375
3057,-21.37,1638869525.75
3058,-16.44,1638869525.765625
3059,-11.09,1638869525.78125
3060,-5.46,1638869525.796875
3061,0.2,1638869525.8125
3062,5.61,1638869525.828125
3063,10.54,1638869525.84375
3064,14.88,1638869525.859375
3065,18.62,1638869525.875
3066,21.84,1638869525.890625
3067,24.52,1638869525.90625
3068,26.53,1638869525.921875
3069,27.58,1638869525.9375
3070,27.38,1638869525.953125
3071,25.86,1638869525.96875
3072,23.16,1638869525.984375
3073,19.66,1638869526.0
3074,15.8,1638869526.015625
3075,11.83,1638869526.03125
3076,7.74,1638869526.046875
3077,3.27,1638869526.0625
3078,-1.9,1638869526.078125
3079,-7.88,1638869526.09375
3080,-14.43,1638869526.109375
3081,-21.08,1638869526.125
3082,-27.24,1638869526.140625
3083,-32.58,1638869526.15625
3084,-37.23,1638869526.171875
3085,-41.78,1638869526.1875
3086,-47.04,1638869526.203125
3087,-53.61,1638869526.21875
3088,-61.45,1638869526.234375
3089,-69.69,1638869526.25
3090,-76.81,1638869526.265625
3091,-81.31,1638869526.28125
3092,-82.37,1638869526.296875
3093,-80.56,1638869526.3125
3094,-77.91,1638869526.328125
3095,-77.26,1638869526.34375
3096,-81.14,1638869526.359375
3097,-90.4,1638869526.375
3098,-103.2,1638869526.390625
3099,-115.06,1638869526.40625
3100,-119.82,1638869526.421875
3101,-111.23,1638869526.4375
3102,-84.46,1638869526.453125
3103,-37.35,1638869526.46875
3104,28.94,1638869526.484375
3105,109.68,1638869526.5
3106,196.97,1638869526.515625
3107,280.9,1638869526.53125
3108,351.56,1638869526.546875
3109,401.72,1638869526.5625
3110,429.01,1638869526.578125
3111,436.74,1638869526.59375
3112,432.58,1638869526.609375
3113,425.47,1638869526.625
3114,422.17,1638869526.640625
3115,425.18,1638869526.65625
3116,432.92,1638869526.671875
3117,441.68,1638869526.6875
3118,448.32,1638869526.703125
3119,451.8,1638869526.71875
3120,453.21,1638869526.734375
3121,454.44,1638869526.75
3122,456.75,1638869526.765625
3123,460.08,1638869526.78125
3124,463.3,1638869526.796875
3125,465.15,1638869526.8125
3126,464.82,1638869526.828125
3127,462.34,1638869526.84375
3128,457.95,1638869526.859375
3129,451.47,1638869526.875
3130,441.95,1638869526.890625
3131,427.8,1638869526.90625
3132,407.34,1638869526.921875
3133,379.27,1638869526.9375
3134,343.21,1638869526.953125
3135,299.65,1638869526.96875
3136,249.79,1638869526.984375
3137,195.16,1638869527.0
3138,137.39,1638869527.015625
3139,78.11,1638869527.03125
3140,18.96,1638869527.046875
3141,-38.29,1638869527.0625
3142,-91.77,1638869527.078125
3143,-139.39,1638869527.09375
3144,-178.96,1638869527.109375
3145,-208.34,1638869527.125
3146,-225.72,1638869527.140625
3147,-229.96,1638869527.15625
3148,-220.96,1638869527.171875
3149,-199.63,1638869527.1875
3150,-167.87,1638869527.203125
3151,-128.31,1638869527.21875
3152,-83.8,1638869527.234375
3153,-37.18,1638869527.25
3154,8.99,1638869527.265625
3155,52.42,1638869527.28125
3156,90.96,1638869527.296875
3157,122.56,1638869527.3125
3158,145.09,1638869527.328125
3159,156.4,1638869527.34375
3160,154.49,1638869527.359375
3161,137.89,1638869527.375
3162,106.17,1638869527.390625
3163,60.33,1638869527.40625
3164,2.86,1638869527.421875
3165,-62.5,1638869527.4375
3166,-131.44,1638869527.453125
3167,-199.86,1638869527.46875
3168,-264.66,1638869527.484375
3169,-324.46,1638869527.5
3170,-379.19,1638869527.515625
3171,-429.25,1638869527.53125
3172,-474.78,1638869527.546875
3173,-515.27,1638869527.5625
3174,-549.78,1638869527.578125
3175,-577.48,1638869527.59375
3176,-598.11,1638869527.609375
3177,-612.63,1638869527.625
3178,-623.51,1638869527.640625
3179,-633.83,1638869527.65625
3180,-646.64,1638869527.671875
3181,-664.42,1638869527.6875
3182,-688.97,1638869527.703125
3183,-721.03,1638869527.71875
3184,-759.52,1638869527.734375
3185,-800.69,1638869527.75
3186,-837.87,1638869527.765625
3187,-863.59,1638869527.78125
3188,-870.74,1638869527.796875
3189,-854.88,1638869527.8125
3190,-815.61,1638869527.828125
3191,-756.8,1638869527.84375
3192,-684.95,1638869527.859375
3193,-606.78,1638869527.875
3194,-527.3,1638869527.890625
3195,-449.49,1638869527.90625
3196,-377.5,1638869527.921875
3197,-314.99,1638869527.9375
3198,-264.08,1638869527.953125
3199,-224.41,1638869527.96875
3200,-193.41,1638869527.984375
3201,-167.13,1638869528.0
3202,-141.47,1638869528.015625
3203,-113.36,1638869528.03125
3204,-81.87,1638869528.046875
3205,-52.9,1638869528.0625
3206,-32.6,1638869528.078125
3207,-23.25,1638869528.09375
3208,-21.33,1638869528.109375
3209,-19.8,1638869528.125
3210,-11.42,1638869528.140625
3211,9.55,1638869528.15625
3212,46.66,1638869528.171875
3213,100.87,1638869528.1875
3214,162.24,1638869528.203125
3215,218.72,1638869528.21875
3216,260.83,1638869528.234375
3217,283.89,1638869528.25
3218,286.51,1638869528.265625
3219,268.98,1638869528.28125
3220,233.63,1638869528.296875
3221,185.52,1638869528.3125
3222,131.09,1638869528.328125
3223,65.86,1638869528.34375
3224,-15.54,1638869528.359375
3225,-114.6,1638869528.375
3226,-226.66,1638869528.390625
3227,-344.79,1638869528.40625
3228,-463.59,1638869528.421875
3229,-579.41,1638869528.4375
3230,-688.71,1638869528.453125
3231,-725.53,1638869528.46875
3232,-648.31,1638869528.484375
3233,-461.53,1638869528.5
3234,-216.95,1638869528.515625
3235,23.78,1638869528.53125
3236,221.27,1638869528.546875
3237,363.05,1638869528.5625
3238,454.23,1638869528.578125
3239,507.8,1638869528.59375
3240,537.77,1638869528.609375
3241,545.06,1638869528.625
3242,528.07,1638869528.640625
3243,488.67,1638869528.65625
3244,435.54,1638869528.671875
3245,380.27,1638869528.6875
3246,332.31,1638869528.703125
3247,297.14,1638869528.71875
3248,276.35,1638869528.734375
3249,268.28,1638869528.75
3250,261.7,1638869528.765625
3251,246.52,1638869528.78125
3252,218.28,1638869528.796875
3253,182.19,1638869528.8125
3254,146.82,1638869528.828125
3255,119.06,1638869528.84375
3256,102.51,1638869528.859375
3257,97.35,1638869528.875
3258,101.23,1638869528.890625
3259,105.82,1638869528.90625
3260,103.66,1638869528.921875
3261,91.65,1638869528.9375
3262,72.17,1638869528.953125
3263,49.98,1638869528.96875
3264,29.08,1638869528.984375
3265,12.13,1638869529.0
3266,-0.12,1638869529.015625
3267,-8.2,1638869529.03125
3268,-15.48,1638869529.046875
3269,-24.85,1638869529.0625
3270,-36.87,1638869529.078125
3271,-49.23,1638869529.09375
3272,-58.1,1638869529.109375
3273,-63.81,1638869529.125
3274,-66.02,1638869529.140625
3275,-64.95,1638869529.15625
3276,-61.34,1638869529.171875
3277,-56.92,1638869529.1875
3278,-53.27,1638869529.203125
3279,-51.11,1638869529.21875
3280,-50.15,1638869529.234375
3281,-49.84,1638869529.25
3282,-49.77,1638869529.265625
3283,-49.35,1638869529.28125
3284,-48.41,1638869529.296875
3285,-47.05,1638869529.3125
3286,-45.42,1638869529.328125
3287,-43.69,1638869529.34375
3288,-41.96,1638869529.359375
3289,-40.25,1638869529.375
3290,-38.65,1638869529.390625
3291,-37.27,1638869529.40625
3292,-35.82,1638869529.421875
3293,-34.17,1638869529.4375
3294,-32.27,1638869529.453125
3295,-30.14,1638869529.46875
3296,-27.86,1638869529.484375
3297,-25.51,1638869529.5
3298,-23.22,1638869529.515625
3299,-21.14,1638869529.53125
3300,-19.47,1638869529.546875
3301,-18.11,1638869529.5625
3302,-17.03,1638869529.578125
3303,-16.23,1638869529.59375
3304,-15.72,1638869529.609375
3305,-15.53,1638869529.625
3306,-15.66,1638869529.640625
3307,-16.13,1638869529.65625
3308,-16.88,1638869529.671875
3309,-17.88,1638869529.6875
3310,-18.94,1638869529.703125
3311,-19.93,1638869529.71875
3312,-20.73,1638869529.734375
3313,-21.29,1638869529.75
3314,-21.61,1638869529.765625
3315,-21.71,1638869529.78125
3316,-21.63,1638869529.796875
3317,-21.37,1638869529.8125
3318,-20.93,1638869529.828125
3319,-20.22,1638869529.84375
3320,-19.18,1638869529.859375
3321,-17.79,1638869529.875
3322,-16.09,1638869529.890625
3323,-14.19,1638869529.90625
3324,-12.17,1638869529.921875
3325,-10.07,1638869529.9375
3326,-7.81,1638869529.953125
3327,-5.14,1638869529.96875
3328,-1.7,1638869529.984375
3329,2.87,1638869530.0
3330,8.83,1638869530.015625
3331,16.23,1638869530.03125
3332,24.89,1638869530.046875
3333,34.48,1638869530.0625
3334,44.66,1638869530.078125
3335,55.19,1638869530.09375
3336,66.04,1638869530.109375
3337,77.32,1638869530.125
3338,89.1,1638869530.140625
3339,101.29,1638869530.15625
3340,113.52,1638869530.171875
3341,125.15,1638869530.1875
3342,135.45,1638869530.203125
3343,143.89,1638869530.21875
3344,150.39,1638869530.234375
3345,155.39,1638869530.25
3346,159.72,1638869530.265625
3347,164.32,1638869530.28125
3348,169.89,1638869530.296875
3349,176.62,1638869530.3125
3350,184.26,1638869530.328125
3351,192.31,1638869530.34375
3352,200.36,1638869530.359375
3353,208.35,1638869530.375
3354,216.62,1638869530.390625
3355,225.86,1638869530.40625
3356,236.91,1638869530.421875
3357,250.71,1638869530.4375
3358,268.11,1638869530.453125
3359,289.44,1638869530.46875
3360,314.08,1638869530.484375
3361,339.87,1638869530.5
3362,363.19,1638869530.515625
3363,380.02,1638869530.53125
3364,387.0,1638869530.546875
3365,382.57,1638869530.5625
3366,367.29,1638869530.578125
3367,344.07,1638869530.59375
3368,316.8,1638869530.609375
3369,288.97,1638869530.625
3370,262.53,1638869530.640625
3371,238.02,1638869530.65625
3372,215.44,1638869530.671875
3373,194.72,1638869530.6875
3374,175.83,1638869530.703125
3375,158.37,1638869530.71875
3376,142.0,1638869530.734375
3377,126.24,1638869530.75
3378,110.7,1638869530.765625
3379,95.26,1638869530.78125
3380,80.36,1638869530.796875
3381,67.61,1638869530.8125
3382,58.63,1638869530.828125
3383,54.36,1638869530.84375
3384,53.89,1638869530.859375
3385,56.15,1638869530.875
3386,59.84,1638869530.890625
3387,63.85,1638869530.90625
3388,67.0,1638869530.921875
3389,68.43,1638869530.9375
3390,69.77,1638869530.953125
3391,72.74,1638869530.96875
3392,78.26,1638869530.984375
3393,83.69,1638869531.0
3394,87.45,1638869531.015625
3395,88.26,1638869531.03125
3396,85.37,1638869531.046875
3397,77.61,1638869531.0625
3398,64.26,1638869531.078125
3399,49.48,1638869531.09375
3400,37.54,1638869531.109375
3401,31.16,1638869531.125
3402,26.18,1638869531.140625
3403,21.54,1638869531.15625
3404,18.15,1638869531.171875
3405,18.96,1638869531.1875
3406,25.68,1638869531.203125
3407,38.76,1638869531.21875
3408,63.35,1638869531.234375
3409,102.04,1638869531.25
3410,153.31,1638869531.265625
3411,205.14,1638869531.28125
3412,251.98,1638869531.296875
3413,293.0,1638869531.3125
3414,331.34,1638869531.328125
3415,368.39,1638869531.34375
3416,404.02,1638869531.359375
3417,445.0,1638869531.375
3418,495.93,1638869531.390625
3419,556.58,1638869531.40625
3420,612.29,1638869531.421875
3421,655.09,1638869531.4375
3422,681.95,1638869531.453125
3423,695.54,1638869531.46875
3424,698.61,1638869531.484375
3425,645.33,1638869531.5
3426,511.96,1638869531.515625
3427,303.4,1638869531.53125
3428,109.38,1638869531.546875
3429,-41.32,1638869531.5625
3430,-145.3,1638869531.578125
3431,-225.89,1638869531.59375
3432,-292.16,1638869531.609375
3433,-349.19,1638869531.625
3434,-399.82,1638869531.640625
3435,-438.16,1638869531.65625
3436,-460.17,1638869531.671875
3437,-466.95,1638869531.6875
3438,-474.2,1638869531.703125
3439,-490.6,1638869531.71875
3440,-519.26,1638869531.734375
3441,-556.99,1638869531.75
3442,-600.01,1638869531.765625
3443,-643.09,1638869531.78125
3444,-673.76,1638869531.796875
3445,-681.26,1638869531.8125
3446,-660.83,1638869531.828125
3447,-622.53,1638869531.84375
3448,-575.17,1638869531.859375
3449,-526.53,1638869531.875
3450,-481.21,1638869531.890625
3451,-443.29,1638869531.90625
3452,-414.63,1638869531.921875
3453,-390.86,1638869531.9375
3454,-367.03,1638869531.953125
3455,-340.22,1638869531.96875
3456,-314.78,1638869531.984375
3457,-292.2,1638869532.0
3458,-271.91,1638869532.015625
3459,-251.34,1638869532.03125
3460,-229.3,1638869532.046875
3461,-205.82,1638869532.0625
3462,-180.0,1638869532.078125
3463,-151.6,1638869532.09375
3464,-121.04,1638869532.109375
3465,-91.36,1638869532.125
3466,-63.49,1638869532.140625
3467,-37.34,1638869532.15625
3468,-12.38,1638869532.171875
3469,10.78,1638869532.1875
3470,31.13,1638869532.203125
3471,48.59,1638869532.21875
3472,63.64,1638869532.234375
3473,76.7,1638869532.25
3474,86.86,1638869532.265625
3475,93.17,1638869532.28125
3476,94.68,1638869532.296875
3477,91.11,1638869532.3125
3478,83.07,1638869532.328125
3479,72.36,1638869532.34375
3480,61.52,1638869532.359375
3481,52.99,1638869532.375
3482,48.24,1638869532.390625
3483,47.52,1638869532.40625
3484,50.26,1638869532.421875
3485,55.8,1638869532.4375
3486,64.02,1638869532.453125
3487,75.09,1638869532.46875
3488,88.76,1638869532.484375
3489,103.26,1638869532.5
3490,114.84,1638869532.515625
3491,118.69,1638869532.53125
3492,110.93,1638869532.546875
3493,90.58,1638869532.5625
3494,60.51,1638869532.578125
3495,26.48,1638869532.59375
3496,-5.26,1638869532.609375
3497,-30.35,1638869532.625
3498,-47.56,1638869532.640625
3499,-58.2,1638869532.65625
3500,-64.32,1638869532.671875
3501,-67.05,1638869532.6875
3502,-66.12,1638869532.703125
3503,-60.75,1638869532.71875
3504,-51.03,1638869532.734375
3505,-38.65,1638869532.75
3506,-26.4,1638869532.765625
3507,-16.74,1638869532.78125
3508,-10.48,1638869532.796875
3509,-6.49,1638869532.8125
3510,-2.61,1638869532.828125
3511,2.76,1638869532.84375
3512,9.48,1638869532.859375
3513,15.53,1638869532.875
3514,18.0,1638869532.890625
3515,14.59,1638869532.90625
3516,4.71,1638869532.921875
3517,-10.19,1638869532.9375
3518,-27.39,1638869532.953125
3519,-44.06,1638869532.96875
3520,-58.39,1638869532.984375
3521,-69.97,1638869533.0
3522,-79.58,1638869533.015625
3523,-88.33,1638869533.03125
3524,-96.87,1638869533.046875
3525,-104.84,1638869533.0625
3526,-110.98,1638869533.078125
3527,-113.75,1638869533.09375
3528,-112.15,1638869533.109375
3529,-106.47,1638869533.125
3530,-98.34,1638869533.140625
3531,-90.22,1638869533.15625
3532,-84.22,1638869533.171875
3533,-81.01,1638869533.1875
3534,-79.33,1638869533.203125
3535,-76.47,1638869533.21875
3536,-69.65,1638869533.234375
3537,-57.45,1638869533.25
3538,-40.65,1638869533.265625
3539,-22.02,1638869533.28125
3540,-5.15,1638869533.296875
3541,6.86,1638869533.3125
3542,12.46,1638869533.328125
3543,11.79,1638869533.34375
3544,6.2,1638869533.359375
3545,-2.32,1638869533.375
3546,-11.75,1638869533.390625
3547,-20.3,1638869533.40625
3548,-26.46,1638869533.421875
3549,-29.12,1638869533.4375
3550,-27.84,1638869533.453125
3551,-22.99,1638869533.46875
3552,-15.76,1638869533.484375
3553,-7.91,1638869533.5
3554,-1.12,1638869533.515625
3555,3.5,1638869533.53125
3556,5.76,1638869533.546875
3557,6.29,1638869533.5625
3558,6.08,1638869533.578125
3559,5.95,1638869533.59375
3560,6.22,1638869533.609375
3561,6.66,1638869533.625
3562,6.75,1638869533.640625
3563,6.08,1638869533.65625
3564,4.56,1638869533.671875
3565,2.41,1638869533.6875
3566,-0.06,1638869533.703125
3567,-2.73,1638869533.71875
3568,-5.76,1638869533.734375
3569,-9.38,1638869533.75
3570,-13.68,1638869533.765625
3571,-18.37,1638869533.78125
3572,-22.81,1638869533.796875
3573,-26.4,1638869533.8125
3574,-28.91,1638869533.828125
3575,-30.58,1638869533.84375
3576,-31.98,1638869533.859375
3577,-33.64,1638869533.875
3578,-35.62,1638869533.890625
3579,-37.48,1638869533.90625
3580,-38.53,1638869533.921875
3581,-38.24,1638869533.9375
3582,-36.61,1638869533.953125
3583,-34.21,1638869533.96875
3584,-31.84,1638869533.984375
3585,-30.08,1638869534.0
3586,-28.99,1638869534.015625
3587,-28.11,1638869534.03125
3588,-26.74,1638869534.046875
3589,-24.47,1638869534.0625
3590,-21.37,1638869534.078125
3591,-17.94,1638869534.09375
3592,-14.78,1638869534.109375
3593,-12.18,1638869534.125
3594,-9.93,1638869534.140625
3595,-7.47,1638869534.15625
3596,-4.19,1638869534.171875
3597,0.23,1638869534.1875
3598,5.72,1638869534.203125
3599,11.94,1638869534.21875
3600,18.49,1638869534.234375
3601,25.07,1638869534.25
3602,31.44,1638869534.265625
3603,37.21,1638869534.28125
3604,41.86,1638869534.296875
3605,44.85,1638869534.3125
3606,45.92,1638869534.328125
3607,45.35,1638869534.34375
3608,44.02,1638869534.359375
3609,43.0,1638869534.375
3610,43.18,1638869534.390625
3611,44.85,1638869534.40625
3612,47.72,1638869534.421875
3613,51.15,1638869534.4375
3614,54.51,1638869534.453125
3615,57.45,1638869534.46875
3616,59.82,1638869534.484375
3617,61.57,1638869534.5
3618,62.59,1638869534.515625
3619,62.61,1638869534.53125
3620,61.5,1638869534.546875
3621,59.36,1638869534.5625
3622,56.72,1638869534.578125
3623,54.33,1638869534.59375
3624,52.9,1638869534.609375
3625,52.7,1638869534.625
3626,53.46,1638869534.640625
3627,54.42,1638869534.65625
3628,54.73,1638869534.671875
3629,53.78,1638869534.6875
3630,51.37,1638869534.703125
3631,47.67,1638869534.71875
3632,42.98,1638869534.734375
3633,37.52,1638869534.75
3634,31.37,1638869534.765625
3635,24.53,1638869534.78125
3636,17.13,1638869534.796875
3637,9.48,1638869534.8125
3638,1.91,1638869534.828125
3639,-5.34,1638869534.84375
3640,-12.21,1638869534.859375
3641,-18.73,1638869534.875
3642,-24.77,1638869534.890625
3643,-29.86,1638869534.90625
3644,-33.27,1638869534.921875
3645,-34.25,1638869534.9375
3646,-32.5,1638869534.953125
3647,-28.26,1638869534.96875
3648,-22.31,1638869534.984375
3649,-15.72,1638869535.0
3650,-9.4,1638869535.015625
3651,-4.14,1638869535.03125
3652,-0.3,1638869535.046875
3653,2.16,1638869535.0625
3654,3.68,1638869535.078125
3655,4.87,1638869535.09375
3656,6.39,1638869535.109375
3657,8.71,1638869535.125
3658,12.08,1638869535.140625
3659,16.5,1638869535.15625
3660,21.73,1638869535.171875
3661,27.3,1638869535.1875
3662,32.69,1638869535.203125
3663,37.27,1638869535.21875
3664,40.29,1638869535.234375
3665,41.22,1638869535.25
3666,40.18,1638869535.265625
3667,38.03,1638869535.28125
3668,36.34,1638869535.296875
3669,36.36,1638869535.3125
3670,38.59,1638869535.328125
3671,42.64,1638869535.34375
3672,47.55,1638869535.359375
3673,52.01,1638869535.375
3674,55.43,1638869535.390625
3675,58.4,1638869535.40625
3676,62.6,1638869535.421875
3677,70.42,1638869535.4375
3678,83.05,1638869535.453125
3679,100.49,1638869535.46875
3680,122.11,1638869535.484375
3681,146.86,1638869535.5
3682,172.87,1638869535.515625
3683,198.3,1638869535.53125
3684,221.72,1638869535.546875
3685,242.53,1638869535.5625
3686,261.9,1638869535.578125
3687,280.16,1638869535.59375
3688,297.28,1638869535.609375
3689,312.97,1638869535.625
3690,325.88,1638869535.640625
3691,332.08,1638869535.65625
3692,326.71,1638869535.671875
3693,305.94,1638869535.6875
3694,269.14,1638869535.703125
3695,220.78,1638869535.71875
3696,165.57,1638869535.734375
3697,107.8,1638869535.75
3698,50.38,1638869535.765625
3699,-6.32,1638869535.78125
3700,-65.21,1638869535.796875
3701,-129.57,1638869535.8125
3702,-200.49,1638869535.828125
3703,-275.42,1638869535.84375
3704,-347.19,1638869535.859375
3705,-411.01,1638869535.875
3706,-464.48,1638869535.890625
3707,-506.95,1638869535.90625
3708,-527.3,1638869535.921875
3709,-515.67,1638869535.9375
3710,-469.17,1638869535.953125
3711,-395.86,1638869535.96875
3712,-323.6,1638869535.984375
3713,-261.34,1638869536.0
3714,-211.97,1638869536.015625
3715,-177.04,1638869536.03125
3716,-153.8,1638869536.046875
3717,-141.63,1638869536.0625
3718,-140.4,1638869536.078125
3719,-148.42,1638869536.09375
3720,-161.94,1638869536.109375
3721,-175.7,1638869536.125
3722,-182.65,1638869536.140625
3723,-180.54,1638869536.15625
3724,-170.67,1638869536.171875
3725,-155.82,1638869536.1875
3726,-139.21,1638869536.203125
3727,-123.86,1638869536.21875
3728,-111.35,1638869536.234375
3729,-101.39,1638869536.25
3730,-92.09,1638869536.265625
3731,-79.63,1638869536.28125
3732,-63.3,1638869536.296875
3733,-44.67,1638869536.3125
3734,-26.29,1638869536.328125
3735,-10.91,1638869536.34375
3736,-0.72,1638869536.359375
3737,3.68,1638869536.375
3738,3.61,1638869536.390625
3739,1.74,1638869536.40625
3740,1.68,1638869536.421875
3741,4.56,1638869536.4375
3742,9.47,1638869536.453125
3743,14.57,1638869536.46875
3744,18.08,1638869536.484375
3745,19.0,1638869536.5
3746,17.49,1638869536.515625
3747,14.59,1638869536.53125
3748,11.74,1638869536.546875
3749,10.64,1638869536.5625
3750,11.66,1638869536.578125
3751,14.35,1638869536.59375
3752,18.09,1638869536.609375
3753,22.37,1638869536.625
3754,27.11,1638869536.640625
3755,32.54,1638869536.65625
3756,39.13,1638869536.671875
3757,47.28,1638869536.6875
3758,57.25,1638869536.703125
3759,68.76,1638869536.71875
3760,81.19,1638869536.734375
3761,93.87,1638869536.75
3762,106.15,1638869536.765625
3763,117.18,1638869536.78125
3764,125.76,1638869536.796875
3765,130.22,1638869536.8125
3766,128.88,1638869536.828125
3767,120.77,1638869536.84375
3768,106.44,1638869536.859375
3769,88.3,1638869536.875
3770,70.03,1638869536.890625
3771,55.39,1638869536.90625
3772,46.8,1638869536.921875
3773,44.55,1638869536.9375
3774,46.9,1638869536.953125
3775,50.98,1638869536.96875
3776,54.12,1638869536.984375
3777,54.78,1638869537.0
3778,52.81,1638869537.015625
3779,48.98,1638869537.03125
3780,44.28,1638869537.046875
3781,39.23,1638869537.0625
3782,33.76,1638869537.078125
3783,27.54,1638869537.09375
3784,20.51,1638869537.109375
3785,13.31,1638869537.125
3786,7.28,1638869537.140625
3787,3.88,1638869537.15625
3788,4.09,1638869537.171875
3789,7.85,1638869537.1875
3790,14.0,1638869537.203125
3791,20.76,1638869537.21875
3792,26.5,1638869537.234375
3793,30.28,1638869537.25
3794,32.18,1638869537.265625
3795,32.98,1638869537.28125
3796,33.66,1638869537.296875
3797,34.99,1638869537.3125
3798,37.29,1638869537.328125
3799,40.49,1638869537.34375
3800,44.28,1638869537.359375
3801,48.25,1638869537.375
3802,52.0,1638869537.390625
3803,55.19,1638869537.40625
3804,57.52,1638869537.421875
3805,58.74,1638869537.4375
3806,58.53,1638869537.453125
3807,56.4,1638869537.46875
3808,51.63,1638869537.484375
3809,43.43,1638869537.5
3810,31.23,1638869537.515625
3811,15.16,1638869537.53125
3812,-3.76,1638869537.546875
3813,-23.68,1638869537.5625
3814,-42.23,1638869537.578125
3815,-57.19,1638869537.59375
3816,-66.85,1638869537.609375
3817,-70.38,1638869537.625
3818,-67.76,1638869537.640625
3819,-59.6,1638869537.65625
3820,-47.0,1638869537.671875
3821,-31.34,1638869537.6875
3822,-14.22,1638869537.703125
3823,2.81,1638869537.71875
3824,18.39,1638869537.734375
3825,31.62,1638869537.75
3826,42.14,1638869537.765625
3827,50.03,1638869537.78125
3828,55.69,1638869537.796875
3829,59.61,1638869537.8125
3830,62.41,1638869537.828125
3831,64.66,1638869537.84375
3832,67.05,1638869537.859375
3833,70.11,1638869537.875
3834,74.11,1638869537.890625
3835,78.78,1638869537.90625
3836,83.36,1638869537.921875
3837,86.79,1638869537.9375
3838,88.18,1638869537.953125
3839,87.34,1638869537.96875
3840,84.91,1638869537.984375
3841,82.33,1638869538.0
3842,81.14,1638869538.015625
3843,82.45,1638869538.03125
3844,86.4,1638869538.046875
3845,92.03,1638869538.0625
3846,97.45,1638869538.078125
3847,100.16,1638869538.09375
3848,97.33,1638869538.109375
3849,86.04,1638869538.125
3850,63.89,1638869538.140625
3851,30.11,1638869538.15625
3852,-13.18,1638869538.171875
3853,-60.55,1638869538.1875
3854,-104.2,1638869538.203125
3855,-136.37,1638869538.21875
3856,-151.97,1638869538.234375
3857,-150.02,1638869538.25
3858,-133.24,1638869538.265625
3859,-106.27,1638869538.28125
3860,-73.68,1638869538.296875
3861,-38.99,1638869538.3125
3862,-4.96,1638869538.328125
3863,25.46,1638869538.34375
3864,48.79,1638869538.359375
3865,61.5,1638869538.375
3866,61.11,1638869538.390625
3867,47.33,1638869538.40625
3868,22.36,1638869538.421875
3869,-9.6,1638869538.4375
3870,-43.45,1638869538.453125
3871,-74.31,1638869538.46875
3872,-98.5,1638869538.484375
3873,-114.08,1638869538.5
3874,-121.09,1638869538.515625
3875,-121.08,1638869538.53125
3876,-116.07,1638869538.546875
3877,-107.55,1638869538.5625
3878,-96.14,1638869538.578125
3879,-82.2,1638869538.59375
3880,-67.12,1638869538.609375
3881,-53.92,1638869538.625
3882,-46.84,1638869538.640625
3883,-49.5,1638869538.65625
3884,-63.07,1638869538.671875
3885,-85.41,1638869538.6875
3886,-111.96,1638869538.703125
3887,-137.57,1638869538.71875
3888,-158.3,1638869538.734375
3889,-172.3,1638869538.75
3890,-179.22,1638869538.765625
3891,-179.43,1638869538.78125
3892,-173.29,1638869538.796875
3893,-161.31,1638869538.8125
3894,-144.61,1638869538.828125
3895,-125.29,1638869538.84375
3896,-106.01,1638869538.859375
3897,-88.93,1638869538.875
3898,-74.79,1638869538.890625
3899,-62.61,1638869538.90625
3900,-50.36,1638869538.921875
3901,-36.16,1638869538.9375
3902,-19.32,1638869538.953125
3903,-0.7,1638869538.96875
3904,17.68,1638869538.984375
3905,33.55,1638869539.0
3906,45.1,1638869539.015625
3907,51.36,1638869539.03125
3908,52.14,1638869539.046875
3909,47.65,1638869539.0625
3910,38.37,1638869539.078125
3911,25.01,1638869539.09375
3912,8.77,1638869539.109375
3913,-8.51,1638869539.125
3914,-24.53,1638869539.140625
3915,-37.01,1638869539.15625
3916,-44.41,1638869539.171875
3917,-46.47,1638869539.1875
3918,-44.36,1638869539.203125
3919,-40.25,1638869539.21875
3920,-36.43,1638869539.234375
3921,-34.5,1638869539.25
3922,-34.79,1638869539.265625
3923,-36.44,1638869539.28125
3924,-37.83,1638869539.296875
3925,-37.42,1638869539.3125
3926,-34.27,1638869539.328125
3927,-28.35,1638869539.34375
3928,-20.44,1638869539.359375
3929,-11.77,1638869539.375
3930,-3.52,1638869539.390625
3931,3.56,1638869539.40625
3932,9.4,1638869539.421875
3933,14.64,1638869539.4375
3934,20.27,1638869539.453125
3935,27.13,1638869539.46875
3936,35.39,1638869539.484375
3937,44.38,1638869539.5
3938,52.71,1638869539.515625
3939,58.79,1638869539.53125
3940,61.36,1638869539.546875
3941,59.96,1638869539.5625
3942,55.09,1638869539.578125
3943,48.02,1638869539.59375
3944,40.53,1638869539.609375
3945,34.38,1638869539.625
3946,30.97,1638869539.640625
3947,30.95,1638869539.65625
3948,34.15,1638869539.671875
3949,39.61,1638869539.6875
3950,46.05,1638869539.703125
3951,52.21,1638869539.71875
3952,57.28,1638869539.734375
3953,61.06,1638869539.75
3954,63.79,1638869539.765625
3955,65.82,1638869539.78125
3956,67.36,1638869539.796875
3957,68.36,1638869539.8125
3958,68.68,1638869539.828125
3959,68.15,1638869539.84375
3960,66.71,1638869539.859375
3961,64.26,1638869539.875
3962,60.68,1638869539.890625
3963,55.81,1638869539.90625
3964,49.73,1638869539.921875
3965,43.01,1638869539.9375
3966,36.81,1638869539.953125
3967,32.66,1638869539.96875
3968,31.77,1638869539.984375
3969,34.51,1638869540.0
3970,40.05,1638869540.015625
3971,46.67,1638869540.03125
3972,52.47,1638869540.046875
3973,56.19,1638869540.0625
3974,57.67,1638869540.078125
3975,57.74,1638869540.09375
3976,57.68,1638869540.109375
3977,58.45,1638869540.125
3978,60.31,1638869540.140625
3979,62.85,1638869540.15625
3980,65.36,1638869540.171875
3981,67.23,1638869540.1875
3982,68.3,1638869540.203125
3983,68.79,1638869540.21875
3984,69.06,1638869540.234375
3985,69.34,1638869540.25
3986,69.55,1638869540.265625
3987,69.36,1638869540.28125
3988,68.29,1638869540.296875
3989,65.96,1638869540.3125
3990,62.25,1638869540.328125
3991,57.46,1638869540.34375
3992,52.25,1638869540.359375
3993,47.41,1638869540.375
3994,43.61,1638869540.390625
3995,41.12,1638869540.40625
3996,39.79,1638869540.421875
3997,39.07,1638869540.4375
3998,38.34,1638869540.453125
3999,37.05,1638869540.46875
4000,35.02,1638869540.484375
4001,32.47,1638869540.5
4002,29.95,1638869540.515625
4003,28.07,1638869540.53125
4004,27.16,1638869540.546875
4005,26.88,1638869540.5625
4006,26.17,1638869540.578125
4007,23.62,1638869540.59375
4008,18.08,1638869540.609375
4009,9.35,1638869540.625
4010,-1.58,1638869540.640625
4011,-12.76,1638869540.65625
4012,-22.16,1638869540.671875
4013,-28.55,1638869540.6875
4014,-32.01,1638869540.703125
4015,-33.76,1638869540.71875
4016,-35.31,1638869540.734375
4017,-37.66,1638869540.75
4018,-40.73,1638869540.765625
4019,-43.59,1638869540.78125
4020,-45.05,1638869540.796875
4021,-44.31,1638869540.8125
4022,-41.4,1638869540.828125
4023,-36.98,1638869540.84375
4024,-32.0,1638869540.859375
4025,-27.27,1638869540.875
4026,-23.23,1638869540.890625
4027,-19.97,1638869540.90625
4028,-17.43,1638869540.921875
4029,-15.49,1638869540.9375
4030,-14.07,1638869540.953125
4031,-13.02,1638869540.96875
4032,-12.15,1638869540.984375
4033,-11.28,1638869541.0
4034,-10.48,1638869541.015625
4035,-10.22,1638869541.03125
4036,-11.38,1638869541.046875
4037,-15.11,1638869541.0625
4038,-22.43,1638869541.078125
4039,-33.66,1638869541.09375
4040,-48.15,1638869541.109375
4041,-64.1,1638869541.125
4042,-78.97,1638869541.140625
4043,-90.11,1638869541.15625
4044,-95.49,1638869541.171875
4045,-94.19,1638869541.1875
4046,-86.61,1638869541.203125
4047,-74.11,1638869541.21875
4048,-58.63,1638869541.234375
4049,-42.24,1638869541.25
4050,-26.84,1638869541.265625
4051,-14.03,1638869541.28125
4052,-5.01,1638869541.296875
4053,-0.45,1638869541.3125
4054,-0.26,1638869541.328125
4055,-3.62,1638869541.34375
4056,-9.0,1638869541.359375
4057,-14.59,1638869541.375
4058,-18.77,1638869541.390625
4059,-20.49,1638869541.40625
4060,-19.34,1638869541.421875
4061,-15.48,1638869541.4375
4062,-9.4,1638869541.453125
4063,-1.66,1638869541.46875
4064,7.15,1638869541.484375
4065,16.47,1638869541.5
4066,25.65,1638869541.515625
4067,34.03,1638869541.53125
4068,41.01,1638869541.546875
4069,46.24,1638869541.5625
4070,49.66,1638869541.578125
4071,51.62,1638869541.59375
4072,52.83,1638869541.609375
4073,54.25,1638869541.625
4074,56.94,1638869541.640625
4075,61.71,1638869541.65625
4076,68.69,1638869541.671875
4077,77.08,1638869541.6875
4078,85.25,1638869541.703125
4079,91.16,1638869541.71875
4080,93.08,1638869541.734375
4081,90.18,1638869541.75
4082,82.67,1638869541.765625
4083,71.59,1638869541.78125
4084,58.27,1638869541.796875
4085,43.94,1638869541.8125
4086,29.59,1638869541.828125
4087,15.88,1638869541.84375
4088,3.26,1638869541.859375
4089,-8.03,1638869541.875
4090,-18.06,1638869541.890625
4091,-27.27,1638869541.90625
4092,-36.27,1638869541.921875
4093,-45.59,1638869541.9375
4094,-55.38,1638869541.953125
4095,-65.3,1638869541.96875
4096,-74.75,1638869541.984375
4097,-83.19,1638869542.0
4098,-90.39,1638869542.015625
4099,-96.42,1638869542.03125
4100,-101.65,1638869542.046875
4101,-106.36,1638869542.0625
4102,-110.72,1638869542.078125
4103,-114.65,1638869542.09375
4104,-117.78,1638869542.109375
4105,-119.58,1638869542.125
4106,-119.4,1638869542.140625
4107,-116.67,1638869542.15625
4108,-111.12,1638869542.171875
4109,-103.01,1638869542.1875
4110,-93.13,1638869542.203125
4111,-82.68,1638869542.21875
4112,-73.04,1638869542.234375
4113,-65.31,1638869542.25
4114,-60.15,1638869542.265625
4115,-57.52,1638869542.28125
4116,-56.92,1638869542.296875
4117,-57.44,1638869542.3125
4118,-57.99,1638869542.328125
4119,-57.5,1638869542.34375
4120,-55.08,1638869542.359375
4121,-50.21,1638869542.375
4122,-42.96,1638869542.390625
4123,-34.0,1638869542.40625
4124,-24.39,1638869542.421875
4125,-15.24,1638869542.4375
4126,-7.33,1638869542.453125
4127,-0.93,1638869542.46875
4128,4.26,1638869542.484375
4129,8.88,1638869542.5
4130,13.71,1638869542.515625
4131,19.41,1638869542.53125
4132,26.32,1638869542.546875
4133,34.31,1638869542.5625
4134,42.9,1638869542.578125
4135,51.59,1638869542.59375
4136,60.31,1638869542.609375
4137,69.68,1638869542.625
4138,80.82,1638869542.640625
4139,94.5,1638869542.65625
4140,110.34,1638869542.671875
4141,126.43,1638869542.6875
4142,139.96,1638869542.703125
4143,148.38,1638869542.71875
4144,150.66,1638869542.734375
4145,147.58,1638869542.75
4146,141.08,1638869542.765625
4147,132.94,1638869542.78125
4148,123.74,1638869542.796875
4149,112.75,1638869542.8125
4150,98.7,1638869542.828125
4151,81.08,1638869542.84375
4152,60.97,1638869542.859375
4153,41.06,1638869542.875
4154,24.74,1638869542.890625
4155,14.91,1638869542.90625
4156,13.04,1638869542.921875
4157,18.81,1638869542.9375
4158,30.46,1638869542.953125
4159,45.34,1638869542.96875
4160,60.73,1638869542.984375
4161,74.28,1638869543.0
4162,84.31,1638869543.015625
4163,89.85,1638869543.03125
4164,90.59,1638869543.046875
4165,86.86,1638869543.0625
4166,79.62,1638869543.078125
4167,70.34,1638869543.09375
4168,60.68,1638869543.109375
4169,52.0,1638869543.125
4170,45.01,1638869543.140625
4171,39.55,1638869543.15625
4172,34.91,1638869543.171875
4173,30.24,1638869543.1875
4174,25.02,1638869543.203125
4175,19.34,1638869543.21875
4176,13.74,1638869543.234375
4177,9.02,1638869543.25
4178,6.0,1638869543.265625
4179,5.28,1638869543.28125
4180,7.07,1638869543.296875
4181,11.27,1638869543.3125
4182,17.45,1638869543.328125
4183,24.94,1638869543.34375
4184,32.96,1638869543.359375
4185,40.74,1638869543.375
4186,47.57,1638869543.390625
4187,52.83,1638869543.40625
4188,55.77,1638869543.421875
4189,55.54,1638869543.4375
4190,51.15,1638869543.453125
4191,41.69,1638869543.46875
4192,26.71,1638869543.484375
4193,6.48,1638869543.5
4194,-17.88,1638869543.515625
4195,-44.52,1638869543.53125
4196,-71.15,1638869543.546875
4197,-95.72,1638869543.5625
4198,-116.97,1638869543.578125
4199,-134.88,1638869543.59375
4200,-150.6,1638869543.609375
4201,-165.87,1638869543.625
4202,-182.01,1638869543.640625
4203,-199.08,1638869543.65625
4204,-215.59,1638869543.671875
4205,-228.98,1638869543.6875
4206,-236.7,1638869543.703125
4207,-237.29,1638869543.71875
4208,-230.81,1638869543.734375
4209,-218.71,1638869543.75
4210,-203.02,1638869543.765625
4211,-185.48,1638869543.78125
4212,-167.18,1638869543.796875
4213,-148.67,1638869543.8125
4214,-130.36,1638869543.828125
4215,-112.84,1638869543.84375
4216,-96.84,1638869543.859375
4217,-82.92,1638869543.875
4218,-71.11,1638869543.890625
4219,-60.74,1638869543.90625
4220,-50.72,1638869543.921875
4221,-40.03,1638869543.9375
4222,-28.26,1638869543.953125
4223,-15.81,1638869543.96875
4224,-3.85,1638869543.984375
4225,6.21,1638869544.0
4226,13.35,1638869544.015625
4227,17.27,1638869544.03125
4228,18.62,1638869544.046875
4229,18.56,1638869544.0625
4230,18.25,1638869544.078125
4231,18.4,1638869544.09375
4232,19.16,1638869544.109375
4233,20.33,1638869544.125
4234,21.71,1638869544.140625
4235,23.41,1638869544.15625
4236,25.7,1638869544.171875
4237,28.76,1638869544.1875
4238,32.52,1638869544.203125
4239,36.43,1638869544.21875
4240,39.77,1638869544.234375
4241,41.87,1638869544.25
4242,42.45,1638869544.265625
4243,41.71,1638869544.28125
4244,40.15,1638869544.296875
4245,38.37,1638869544.3125
4246,36.77,1638869544.328125
4247,35.44,1638869544.34375
4248,34.17,1638869544.359375
4249,32.59,1638869544.375
4250,30.32,1638869544.390625
4251,27.18,1638869544.40625
4252,23.34,1638869544.421875
4253,19.23,1638869544.4375
4254,15.54,1638869544.453125
4255,13.0,1638869544.46875
4256,12.11,1638869544.484375
4257,12.99,1638869544.5
4258,15.32,1638869544.515625
4259,18.41,1638869544.53125
4260,21.38,1638869544.546875
4261,23.37,1638869544.5625
4262,23.7,1638869544.578125
4263,22.02,1638869544.59375
4264,18.46,1638869544.609375
