,BVP,timestamp
1,-0.0,1637349351.0
2,-0.0,1637349351.015625
3,-0.0,1637349351.03125
4,-0.0,1637349351.046875
5,-0.0,1637349351.0625
6,-0.0,1637349351.078125
7,-0.0,1637349351.09375
8,-0.0,1637349351.109375
9,-0.0,1637349351.125
10,-0.0,1637349351.140625
11,0.0,1637349351.15625
12,0.01,1637349351.171875
13,0.01,1637349351.1875
14,-0.0,1637349351.203125
15,-0.03,1637349351.21875
16,-0.05,1637349351.234375
17,-0.05,1637349351.25
18,0.0,1637349351.265625
19,0.13,1637349351.28125
20,0.36,1637349351.296875
21,0.66,1637349351.3125
22,1.01,1637349351.328125
23,1.37,1637349351.34375
24,1.72,1637349351.359375
25,2.06,1637349351.375
26,2.4,1637349351.390625
27,2.79,1637349351.40625
28,3.24,1637349351.421875
29,3.8,1637349351.4375
30,4.42,1637349351.453125
31,5.06,1637349351.46875
32,5.66,1637349351.484375
33,6.2,1637349351.5
34,6.68,1637349351.515625
35,7.15,1637349351.53125
36,7.68,1637349351.546875
37,8.31,1637349351.5625
38,9.14,1637349351.578125
39,10.09,1637349351.59375
40,11.04,1637349351.609375
41,11.88,1637349351.625
42,12.56,1637349351.640625
43,13.14,1637349351.65625
44,13.76,1637349351.671875
45,14.65,1637349351.6875
46,15.96,1637349351.703125
47,17.91,1637349351.71875
48,20.32,1637349351.734375
49,22.9,1637349351.75
50,25.38,1637349351.765625
51,27.58,1637349351.78125
52,29.57,1637349351.796875
53,31.68,1637349351.8125
54,34.32,1637349351.828125
55,37.81,1637349351.84375
56,42.54,1637349351.859375
57,48.15,1637349351.875
58,54.1,1637349351.890625
59,59.83,1637349351.90625
60,64.97,1637349351.921875
61,69.58,1637349351.9375
62,74.14,1637349351.953125
63,79.34,1637349351.96875
64,85.71,1637349351.984375
65,93.76,1637349352.0
66,103.0,1637349352.015625
67,112.62,1637349352.03125
68,121.73,1637349352.046875
69,129.77,1637349352.0625
70,136.75,1637349352.078125
71,143.3,1637349352.09375
72,150.75,1637349352.109375
73,157.77,1637349352.125
74,166.64,1637349352.140625
75,177.95,1637349352.15625
76,191.79,1637349352.171875
77,206.97,1637349352.1875
78,220.57,1637349352.203125
79,228.25,1637349352.21875
80,225.36,1637349352.234375
81,208.53,1637349352.25
82,176.87,1637349352.265625
83,132.76,1637349352.28125
84,80.05,1637349352.296875
85,23.07,1637349352.3125
86,-34.94,1637349352.328125
87,-92.44,1637349352.34375
88,-149.16,1637349352.359375
89,-205.23,1637349352.375
90,-260.37,1637349352.390625
91,-313.74,1637349352.40625
92,-363.87,1637349352.421875
93,-409.83,1637349352.4375
94,-450.91,1637349352.453125
95,-486.5,1637349352.46875
96,-515.74,1637349352.484375
97,-537.23,1637349352.5
98,-549.22,1637349352.515625
99,-549.96,1637349352.53125
100,-538.37,1637349352.546875
101,-514.21,1637349352.5625
102,-478.68,1637349352.578125
103,-433.88,1637349352.59375
104,-382.45,1637349352.609375
105,-327.01,1637349352.625
106,-269.82,1637349352.640625
107,-212.6,1637349352.65625
108,-156.61,1637349352.671875
109,-102.88,1637349352.6875
110,-52.27,1637349352.703125
111,-5.76,1637349352.71875
112,35.76,1637349352.734375
113,71.65,1637349352.75
114,101.63,1637349352.765625
115,125.83,1637349352.78125
116,144.77,1637349352.796875
117,159.14,1637349352.8125
118,169.66,1637349352.828125
119,176.94,1637349352.84375
120,181.39,1637349352.859375
121,183.28,1637349352.875
122,182.84,1637349352.890625
123,180.36,1637349352.90625
124,176.16,1637349352.921875
125,170.67,1637349352.9375
126,164.28,1637349352.953125
127,157.35,1637349352.96875
128,150.12,1637349352.984375
129,142.73,1637349353.0
130,135.25,1637349353.015625
131,127.73,1637349353.03125
132,120.21,1637349353.046875
133,112.75,1637349353.0625
134,105.43,1637349353.078125
135,98.31,1637349353.09375
136,91.45,1637349353.109375
137,84.88,1637349353.125
138,78.62,1637349353.140625
139,72.68,1637349353.15625
140,67.06,1637349353.171875
141,61.79,1637349353.1875
142,56.87,1637349353.203125
143,52.31,1637349353.21875
144,48.11,1637349353.234375
145,44.27,1637349353.25
146,40.8,1637349353.265625
147,37.66,1637349353.28125
148,34.87,1637349353.296875
149,32.42,1637349353.3125
150,30.31,1637349353.328125
151,28.52,1637349353.34375
152,27.06,1637349353.359375
153,25.92,1637349353.375
154,25.08,1637349353.390625
155,24.54,1637349353.40625
156,24.28,1637349353.421875
157,24.29,1637349353.4375
158,24.57,1637349353.453125
159,25.1,1637349353.46875
160,25.87,1637349353.484375
161,26.84,1637349353.5
162,27.98,1637349353.515625
163,29.23,1637349353.53125
164,30.5,1637349353.546875
165,31.68,1637349353.5625
166,32.63,1637349353.578125
167,33.19,1637349353.59375
168,33.2,1637349353.609375
169,32.51,1637349353.625
170,31.0,1637349353.640625
171,28.61,1637349353.65625
172,25.32,1637349353.671875
173,21.21,1637349353.6875
174,16.36,1637349353.703125
175,10.97,1637349353.71875
176,5.27,1637349353.734375
177,-0.49,1637349353.75
178,-6.03,1637349353.765625
179,-11.11,1637349353.78125
180,-15.54,1637349353.796875
181,-19.15,1637349353.8125
182,-21.86,1637349353.828125
183,-23.65,1637349353.84375
184,-24.54,1637349353.859375
185,-24.61,1637349353.875
186,-23.98,1637349353.890625
187,-22.76,1637349353.90625
188,-21.11,1637349353.921875
189,-19.12,1637349353.9375
190,-16.93,1637349353.953125
191,-14.59,1637349353.96875
192,-12.17,1637349353.984375
193,-9.7,1637349354.0
194,-7.23,1637349354.015625
195,-4.78,1637349354.03125
196,-2.37,1637349354.046875
197,-0.0,1637349354.0625
198,2.33,1637349354.078125
199,4.65,1637349354.09375
200,6.99,1637349354.109375
201,9.37,1637349354.125
202,11.85,1637349354.140625
203,14.4,1637349354.15625
204,17.01,1637349354.171875
205,19.69,1637349354.1875
206,22.45,1637349354.203125
207,25.33,1637349354.21875
208,28.34,1637349354.234375
209,31.52,1637349354.25
210,34.95,1637349354.265625
211,38.69,1637349354.28125
212,42.65,1637349354.296875
213,46.78,1637349354.3125
214,51.05,1637349354.328125
215,55.47,1637349354.34375
216,60.04,1637349354.359375
217,64.76,1637349354.375
218,69.7,1637349354.390625
219,74.89,1637349354.40625
220,80.44,1637349354.421875
221,86.18,1637349354.4375
222,91.99,1637349354.453125
223,97.84,1637349354.46875
224,103.68,1637349354.484375
225,109.51,1637349354.5
226,115.34,1637349354.515625
227,121.19,1637349354.53125
228,127.09,1637349354.546875
229,133.16,1637349354.5625
230,139.05,1637349354.578125
231,144.56,1637349354.59375
232,149.44,1637349354.609375
233,153.45,1637349354.625
234,156.29,1637349354.640625
235,157.54,1637349354.65625
236,156.64,1637349354.671875
237,152.75,1637349354.6875
238,147.42,1637349354.703125
239,141.19,1637349354.71875
240,134.39,1637349354.734375
241,127.24,1637349354.75
242,119.92,1637349354.765625
243,112.56,1637349354.78125
244,105.26,1637349354.796875
245,98.16,1637349354.8125
246,91.37,1637349354.828125
247,85.09,1637349354.84375
248,79.1,1637349354.859375
249,73.34,1637349354.875
250,67.73,1637349354.890625
251,62.27,1637349354.90625
252,56.93,1637349354.921875
253,51.74,1637349354.9375
254,46.75,1637349354.953125
255,42.03,1637349354.96875
256,37.76,1637349354.984375
257,33.82,1637349355.0
258,30.16,1637349355.015625
259,26.79,1637349355.03125
260,23.67,1637349355.046875
261,20.77,1637349355.0625
262,18.05,1637349355.078125
263,15.49,1637349355.09375
264,13.09,1637349355.109375
265,10.94,1637349355.125
266,8.93,1637349355.140625
267,7.02,1637349355.15625
268,5.19,1637349355.171875
269,3.4,1637349355.1875
270,1.56,1637349355.203125
271,-0.37,1637349355.21875
272,-2.45,1637349355.234375
273,-4.64,1637349355.25
274,-6.85,1637349355.265625
275,-9.0,1637349355.28125
276,-11.02,1637349355.296875
277,-12.87,1637349355.3125
278,-14.61,1637349355.328125
279,-16.39,1637349355.34375
280,-18.42,1637349355.359375
281,-20.85,1637349355.375
282,-23.7,1637349355.390625
283,-26.85,1637349355.40625
284,-30.08,1637349355.421875
285,-33.15,1637349355.4375
286,-36.0,1637349355.453125
287,-38.74,1637349355.46875
288,-41.72,1637349355.484375
289,-45.34,1637349355.5
290,-49.93,1637349355.515625
291,-55.54,1637349355.53125
292,-61.89,1637349355.546875
293,-68.52,1637349355.5625
294,-74.95,1637349355.578125
295,-80.95,1637349355.59375
296,-86.72,1637349355.609375
297,-92.76,1637349355.625
298,-99.77,1637349355.640625
299,-108.3,1637349355.65625
300,-118.46,1637349355.671875
301,-129.95,1637349355.6875
302,-142.15,1637349355.703125
303,-154.44,1637349355.71875
304,-166.47,1637349355.734375
305,-178.29,1637349355.75
306,-190.3,1637349355.765625
307,-203.14,1637349355.78125
308,-217.58,1637349355.796875
309,-234.48,1637349355.8125
310,-254.53,1637349355.828125
311,-277.79,1637349355.84375
312,-303.08,1637349355.859375
313,-327.7,1637349355.875
314,-347.77,1637349355.890625
315,-359.33,1637349355.90625
316,-359.77,1637349355.921875
317,-348.81,1637349355.9375
318,-328.66,1637349355.953125
319,-303.07,1637349355.96875
320,-275.94,1637349355.984375
321,-250.07,1637349356.0
322,-226.74,1637349356.015625
323,-206.04,1637349356.03125
324,-187.59,1637349356.046875
325,-171.09,1637349356.0625
326,-156.42,1637349356.078125
327,-143.37,1637349356.09375
328,-131.47,1637349356.109375
329,-120.01,1637349356.125
330,-108.38,1637349356.140625
331,-96.49,1637349356.15625
332,-84.87,1637349356.171875
333,-74.49,1637349356.1875
334,-66.28,1637349356.203125
335,-60.6,1637349356.21875
336,-56.88,1637349356.234375
337,-53.69,1637349356.25
338,-49.13,1637349356.265625
339,-41.54,1637349356.28125
340,-30.11,1637349356.296875
341,-15.24,1637349356.3125
342,1.56,1637349356.328125
343,18.17,1637349356.34375
344,32.58,1637349356.359375
345,43.47,1637349356.375
346,50.44,1637349356.390625
347,53.97,1637349356.40625
348,55.02,1637349356.421875
349,54.67,1637349356.4375
350,53.77,1637349356.453125
351,52.8,1637349356.46875
352,52.02,1637349356.484375
353,51.45,1637349356.5
354,51.11,1637349356.515625
355,50.97,1637349356.53125
356,50.99,1637349356.546875
357,51.1,1637349356.5625
358,51.17,1637349356.578125
359,51.05,1637349356.59375
360,50.64,1637349356.609375
361,49.92,1637349356.625
362,49.05,1637349356.640625
363,48.21,1637349356.65625
364,47.61,1637349356.671875
365,47.31,1637349356.6875
366,47.19,1637349356.703125
367,46.93,1637349356.71875
368,46.24,1637349356.734375
369,44.99,1637349356.75
370,43.21,1637349356.765625
371,41.14,1637349356.78125
372,38.96,1637349356.796875
373,36.73,1637349356.8125
374,34.29,1637349356.828125
375,31.43,1637349356.84375
376,28.06,1637349356.859375
377,24.34,1637349356.875
378,20.63,1637349356.890625
379,17.37,1637349356.90625
380,14.83,1637349356.921875
381,13.05,1637349356.9375
382,11.77,1637349356.953125
383,10.61,1637349356.96875
384,9.21,1637349356.984375
385,7.34,1637349357.0
386,5.02,1637349357.015625
387,2.46,1637349357.03125
388,-0.06,1637349357.046875
389,-2.28,1637349357.0625
390,-4.12,1637349357.078125
391,-5.73,1637349357.09375
392,-7.44,1637349357.109375
393,-9.62,1637349357.125
394,-12.58,1637349357.140625
395,-16.42,1637349357.15625
396,-20.9,1637349357.171875
397,-25.38,1637349357.1875
398,-28.89,1637349357.203125
399,-30.3,1637349357.21875
400,-28.54,1637349357.234375
401,-23.05,1637349357.25
402,-14.0,1637349357.265625
403,-2.45,1637349357.28125
404,9.91,1637349357.296875
405,21.22,1637349357.3125
406,29.97,1637349357.328125
407,35.44,1637349357.34375
408,37.74,1637349357.359375
409,37.6,1637349357.375
410,35.93,1637349357.390625
411,33.54,1637349357.40625
412,30.99,1637349357.421875
413,28.61,1637349357.4375
414,26.63,1637349357.453125
415,25.18,1637349357.46875
416,24.36,1637349357.484375
417,24.09,1637349357.5
418,24.21,1637349357.515625
419,24.43,1637349357.53125
420,24.58,1637349357.546875
421,24.57,1637349357.5625
422,24.45,1637349357.578125
423,24.38,1637349357.59375
424,24.44,1637349357.609375
425,24.63,1637349357.625
426,24.88,1637349357.640625
427,25.06,1637349357.65625
428,25.07,1637349357.671875
429,24.82,1637349357.6875
430,24.25,1637349357.703125
431,23.37,1637349357.71875
432,22.2,1637349357.734375
433,20.79,1637349357.75
434,19.19,1637349357.765625
435,17.42,1637349357.78125
436,15.56,1637349357.796875
437,13.64,1637349357.8125
438,11.77,1637349357.828125
439,9.98,1637349357.84375
440,8.22,1637349357.859375
441,6.31,1637349357.875
442,4.03,1637349357.890625
443,1.26,1637349357.90625
444,-1.94,1637349357.921875
445,-5.31,1637349357.9375
446,-8.44,1637349357.953125
447,-10.97,1637349357.96875
448,-12.72,1637349357.984375
449,-13.79,1637349358.0
450,-14.46,1637349358.015625
451,-15.15,1637349358.03125
452,-16.33,1637349358.046875
453,-18.36,1637349358.0625
454,-21.34,1637349358.078125
455,-24.95,1637349358.09375
456,-28.31,1637349358.109375
457,-30.19,1637349358.125
458,-29.33,1637349358.140625
459,-24.88,1637349358.15625
460,-16.87,1637349358.171875
461,-6.21,1637349358.1875
462,5.48,1637349358.203125
463,16.46,1637349358.21875
464,25.37,1637349358.234375
465,31.56,1637349358.25
466,35.04,1637349358.265625
467,36.29,1637349358.28125
468,35.93,1637349358.296875
469,34.47,1637349358.3125
470,32.29,1637349358.328125
471,29.73,1637349358.34375
472,27.1,1637349358.359375
473,24.7,1637349358.375
474,22.8,1637349358.390625
475,21.5,1637349358.40625
476,20.73,1637349358.421875
477,20.29,1637349358.4375
478,19.94,1637349358.453125
479,19.56,1637349358.46875
480,19.16,1637349358.484375
481,18.85,1637349358.5
482,18.79,1637349358.515625
483,19.05,1637349358.53125
484,19.58,1637349358.546875
485,20.18,1637349358.5625
486,20.62,1637349358.578125
487,20.67,1637349358.59375
488,20.23,1637349358.609375
489,19.25,1637349358.625
490,17.74,1637349358.640625
491,15.75,1637349358.65625
492,13.27,1637349358.671875
493,10.37,1637349358.6875
494,7.14,1637349358.703125
495,3.79,1637349358.71875
496,0.55,1637349358.734375
497,-2.4,1637349358.75
498,-5.04,1637349358.765625
499,-7.47,1637349358.78125
500,-9.89,1637349358.796875
501,-12.43,1637349358.8125
502,-15.14,1637349358.828125
503,-17.87,1637349358.84375
504,-20.42,1637349358.859375
505,-22.59,1637349358.875
506,-24.28,1637349358.890625
507,-25.48,1637349358.90625
508,-26.32,1637349358.921875
509,-27.0,1637349358.9375
510,-27.8,1637349358.953125
511,-29.05,1637349358.96875
512,-31.1,1637349358.984375
513,-34.14,1637349359.0
514,-38.02,1637349359.015625
515,-42.02,1637349359.03125
516,-44.94,1637349359.046875
517,-45.35,1637349359.0625
518,-42.07,1637349359.078125
519,-34.66,1637349359.09375
520,-23.68,1637349359.109375
521,-10.54,1637349359.125
522,2.85,1637349359.140625
523,14.71,1637349359.15625
524,23.88,1637349359.171875
525,29.92,1637349359.1875
526,33.1,1637349359.203125
527,34.04,1637349359.21875
528,33.41,1637349359.234375
529,31.8,1637349359.25
530,29.7,1637349359.265625
531,27.55,1637349359.28125
532,25.73,1637349359.296875
533,24.49,1637349359.3125
534,23.86,1637349359.328125
535,23.57,1637349359.34375
536,23.2,1637349359.359375
537,22.38,1637349359.375
538,21.01,1637349359.390625
539,19.38,1637349359.40625
540,18.01,1637349359.421875
541,17.41,1637349359.4375
542,17.76,1637349359.453125
543,18.88,1637349359.46875
544,20.25,1637349359.484375
545,21.33,1637349359.5
546,21.72,1637349359.515625
547,21.34,1637349359.53125
548,20.3,1637349359.546875
549,18.83,1637349359.5625
550,17.11,1637349359.578125
551,15.25,1637349359.59375
552,13.26,1637349359.609375
553,11.07,1637349359.625
554,8.63,1637349359.640625
555,5.92,1637349359.65625
556,2.99,1637349359.671875
557,0.04,1637349359.6875
558,-2.73,1637349359.703125
559,-5.12,1637349359.71875
560,-7.04,1637349359.734375
561,-8.63,1637349359.75
562,-10.16,1637349359.765625
563,-11.87,1637349359.78125
564,-13.96,1637349359.796875
565,-16.4,1637349359.8125
566,-18.98,1637349359.828125
567,-21.45,1637349359.84375
568,-23.59,1637349359.859375
569,-25.28,1637349359.875
570,-26.57,1637349359.890625
571,-27.67,1637349359.90625
572,-28.88,1637349359.921875
573,-30.55,1637349359.9375
574,-32.97,1637349359.953125
575,-36.16,1637349359.96875
576,-39.73,1637349359.984375
577,-42.74,1637349360.0
578,-43.9,1637349360.015625
579,-41.96,1637349360.03125
580,-36.16,1637349360.046875
581,-26.65,1637349360.0625
582,-14.54,1637349360.078125
583,-1.57,1637349360.09375
584,10.37,1637349360.109375
585,19.87,1637349360.125
586,26.25,1637349360.140625
587,29.6,1637349360.15625
588,30.51,1637349360.171875
589,29.76,1637349360.1875
590,28.0,1637349360.203125
591,25.72,1637349360.21875
592,23.25,1637349360.234375
593,20.84,1637349360.25
594,18.73,1637349360.265625
595,17.14,1637349360.28125
596,16.15,1637349360.296875
597,15.79,1637349360.3125
598,15.96,1637349360.328125
599,16.52,1637349360.34375
600,17.29,1637349360.359375
601,18.1,1637349360.375
602,18.83,1637349360.390625
603,19.41,1637349360.40625
604,19.85,1637349360.421875
605,20.15,1637349360.4375
606,20.35,1637349360.453125
607,20.38,1637349360.46875
608,20.09,1637349360.484375
609,19.29,1637349360.5
610,17.85,1637349360.515625
611,15.78,1637349360.53125
612,13.25,1637349360.546875
613,10.54,1637349360.5625
614,7.9,1637349360.578125
615,5.45,1637349360.59375
616,3.18,1637349360.609375
617,0.99,1637349360.625
618,-1.17,1637349360.640625
619,-3.24,1637349360.65625
620,-5.15,1637349360.671875
621,-6.76,1637349360.6875
622,-8.05,1637349360.703125
623,-9.11,1637349360.71875
624,-10.1,1637349360.734375
625,-11.15,1637349360.75
626,-12.27,1637349360.765625
627,-13.35,1637349360.78125
628,-14.22,1637349360.796875
629,-14.78,1637349360.8125
630,-15.12,1637349360.828125
631,-15.49,1637349360.84375
632,-16.33,1637349360.859375
633,-18.02,1637349360.875
634,-20.87,1637349360.890625
635,-24.88,1637349360.90625
636,-29.73,1637349360.921875
637,-34.72,1637349360.9375
638,-38.78,1637349360.953125
639,-40.69,1637349360.96875
640,-39.35,1637349360.984375
641,-34.13,1637349361.0
642,-25.2,1637349361.015625
643,-13.6,1637349361.03125
644,-0.99,1637349361.046875
645,10.82,1637349361.0625
646,20.38,1637349361.078125
647,26.94,1637349361.09375
648,30.51,1637349361.109375
649,31.64,1637349361.125
650,31.12,1637349361.140625
651,29.67,1637349361.15625
652,27.83,1637349361.171875
653,25.92,1637349361.1875
654,24.09,1637349361.203125
655,22.35,1637349361.21875
656,20.7,1637349361.234375
657,19.14,1637349361.25
658,17.75,1637349361.265625
659,16.61,1637349361.28125
660,15.86,1637349361.296875
661,15.52,1637349361.3125
662,15.51,1637349361.328125
663,15.7,1637349361.34375
664,15.95,1637349361.359375
665,16.19,1637349361.375
666,16.4,1637349361.390625
667,16.58,1637349361.40625
668,16.64,1637349361.421875
669,16.42,1637349361.4375
670,15.74,1637349361.453125
671,14.48,1637349361.46875
672,12.68,1637349361.484375
673,10.53,1637349361.5
674,8.29,1637349361.515625
675,6.18,1637349361.53125
676,4.33,1637349361.546875
677,2.68,1637349361.5625
678,1.1,1637349361.578125
679,-0.64,1637349361.59375
680,-2.68,1637349361.609375
681,-5.14,1637349361.625
682,-7.94,1637349361.640625
683,-10.93,1637349361.65625
684,-13.89,1637349361.671875
685,-16.6,1637349361.6875
686,-18.95,1637349361.703125
687,-20.92,1637349361.71875
688,-22.7,1637349361.734375
689,-24.56,1637349361.75
690,-26.91,1637349361.765625
691,-30.06,1637349361.78125
692,-34.07,1637349361.796875
693,-38.48,1637349361.8125
694,-42.3,1637349361.828125
695,-44.19,1637349361.84375
696,-42.87,1637349361.859375
697,-37.65,1637349361.875
698,-28.81,1637349361.890625
699,-17.49,1637349361.90625
700,-5.44,1637349361.921875
701,5.66,1637349361.9375
702,14.59,1637349361.953125
703,20.83,1637349361.96875
704,24.41,1637349361.984375
705,25.7,1637349362.0
706,25.23,1637349362.015625
707,23.56,1637349362.03125
708,21.3,1637349362.046875
709,19.03,1637349362.0625
710,17.24,1637349362.078125
711,16.13,1637349362.09375
712,15.64,1637349362.109375
713,15.47,1637349362.125
714,15.31,1637349362.140625
715,14.93,1637349362.15625
716,14.32,1637349362.171875
717,13.65,1637349362.1875
718,13.18,1637349362.203125
719,13.1,1637349362.21875
720,13.47,1637349362.234375
721,14.14,1637349362.25
722,14.78,1637349362.265625
723,15.03,1637349362.28125
724,14.61,1637349362.296875
725,13.43,1637349362.3125
726,11.64,1637349362.328125
727,9.55,1637349362.34375
728,7.47,1637349362.359375
729,5.55,1637349362.375
730,3.75,1637349362.390625
731,1.86,1637349362.40625
732,-0.36,1637349362.421875
733,-3.06,1637349362.4375
734,-6.2,1637349362.453125
735,-9.62,1637349362.46875
736,-13.08,1637349362.484375
737,-16.32,1637349362.5
738,-19.12,1637349362.515625
739,-21.41,1637349362.53125
740,-23.22,1637349362.546875
741,-24.8,1637349362.5625
742,-26.55,1637349362.578125
743,-28.94,1637349362.59375
744,-32.36,1637349362.609375
745,-36.86,1637349362.625
746,-42.0,1637349362.640625
747,-46.71,1637349362.65625
748,-49.52,1637349362.671875
749,-48.96,1637349362.6875
750,-44.07,1637349362.703125
751,-34.82,1637349362.71875
752,-22.22,1637349362.734375
753,-8.1,1637349362.75
754,5.5,1637349362.765625
755,16.87,1637349362.78125
756,25.06,1637349362.796875
757,29.95,1637349362.8125
758,32.06,1637349362.828125
759,32.16,1637349362.84375
760,31.01,1637349362.859375
761,29.21,1637349362.875
762,27.2,1637349362.890625
763,25.31,1637349362.90625
764,23.72,1637349362.921875
765,22.51,1637349362.9375
766,21.64,1637349362.953125
767,20.95,1637349362.96875
768,20.27,1637349362.984375
769,19.47,1637349363.0
770,18.54,1637349363.015625
771,17.55,1637349363.03125
772,16.65,1637349363.046875
773,15.92,1637349363.0625
774,15.42,1637349363.078125
775,15.09,1637349363.09375
776,14.8,1637349363.109375
777,14.41,1637349363.125
778,13.77,1637349363.140625
779,12.78,1637349363.15625
780,11.36,1637349363.171875
781,9.52,1637349363.1875
782,7.21,1637349363.203125
783,4.44,1637349363.21875
784,1.19,1637349363.234375
785,-2.46,1637349363.25
786,-6.36,1637349363.265625
787,-10.27,1637349363.28125
788,-13.91,1637349363.296875
789,-17.04,1637349363.3125
790,-19.62,1637349363.328125
791,-21.85,1637349363.34375
792,-24.12,1637349363.359375
793,-27.0,1637349363.375
794,-30.92,1637349363.390625
795,-35.9,1637349363.40625
796,-41.4,1637349363.421875
797,-46.28,1637349363.4375
798,-49.04,1637349363.453125
799,-48.33,1637349363.46875
800,-43.4,1637349363.484375
801,-34.39,1637349363.5
802,-22.39,1637349363.515625
803,-9.06,1637349363.53125
804,3.83,1637349363.546875
805,14.84,1637349363.5625
806,23.14,1637349363.578125
807,28.46,1637349363.59375
808,31.03,1637349363.609375
809,31.35,1637349363.625
810,30.09,1637349363.640625
811,28.03,1637349363.65625
812,25.89,1637349363.671875
813,24.25,1637349363.6875
814,23.39,1637349363.703125
815,23.24,1637349363.71875
816,23.48,1637349363.734375
817,23.68,1637349363.75
818,23.54,1637349363.765625
819,22.95,1637349363.78125
820,22.1,1637349363.796875
821,21.32,1637349363.8125
822,20.97,1637349363.828125
823,21.25,1637349363.84375
824,22.11,1637349363.859375
825,23.24,1637349363.875
826,24.16,1637349363.890625
827,24.34,1637349363.90625
828,23.38,1637349363.921875
829,21.16,1637349363.9375
830,17.9,1637349363.953125
831,14.0,1637349363.96875
832,9.97,1637349363.984375
833,6.14,1637349364.0
834,2.59,1637349364.015625
835,-0.8,1637349364.03125
836,-4.25,1637349364.046875
837,-7.9,1637349364.0625
838,-11.69,1637349364.078125
839,-15.42,1637349364.09375
840,-18.85,1637349364.109375
841,-21.83,1637349364.125
842,-24.38,1637349364.140625
843,-26.63,1637349364.15625
844,-28.85,1637349364.171875
845,-31.36,1637349364.1875
846,-34.46,1637349364.203125
847,-38.29,1637349364.21875
848,-42.64,1637349364.234375
849,-46.78,1637349364.25
850,-49.56,1637349364.265625
851,-49.67,1637349364.28125
852,-46.07,1637349364.296875
853,-38.48,1637349364.3125
854,-27.59,1637349364.328125
855,-14.85,1637349364.34375
856,-2.09,1637349364.359375
857,9.07,1637349364.375
858,17.64,1637349364.390625
859,23.33,1637349364.40625
860,26.48,1637349364.421875
861,27.77,1637349364.4375
862,27.98,1637349364.453125
863,27.69,1637349364.46875
864,27.27,1637349364.484375
865,26.83,1637349364.5
866,26.34,1637349364.515625
867,25.77,1637349364.53125
868,25.22,1637349364.546875
869,24.82,1637349364.5625
870,24.8,1637349364.578125
871,25.25,1637349364.59375
872,26.09,1637349364.609375
873,27.08,1637349364.625
874,27.93,1637349364.640625
875,28.43,1637349364.65625
876,28.52,1637349364.671875
877,28.25,1637349364.6875
878,27.7,1637349364.703125
879,26.83,1637349364.71875
880,25.54,1637349364.734375
881,23.69,1637349364.75
882,21.2,1637349364.765625
883,18.11,1637349364.78125
884,14.53,1637349364.796875
885,10.6,1637349364.8125
886,6.41,1637349364.828125
887,1.97,1637349364.84375
888,-2.7,1637349364.859375
889,-7.5,1637349364.875
890,-12.19,1637349364.890625
891,-16.49,1637349364.90625
892,-20.16,1637349364.921875
893,-23.2,1637349364.9375
894,-25.95,1637349364.953125
895,-28.98,1637349364.96875
896,-32.88,1637349364.984375
897,-37.86,1637349365.0
898,-43.54,1637349365.015625
899,-48.82,1637349365.03125
900,-52.12,1637349365.046875
901,-51.94,1637349365.0625
902,-47.39,1637349365.078125
903,-38.65,1637349365.09375
904,-26.85,1637349365.109375
905,-13.81,1637349365.125
906,-1.39,1637349365.140625
907,9.05,1637349365.15625
908,16.86,1637349365.171875
909,22.0,1637349365.1875
910,24.83,1637349365.203125
911,25.85,1637349365.21875
912,25.51,1637349365.234375
913,24.34,1637349365.25
914,22.82,1637349365.265625
915,21.43,1637349365.28125
916,20.46,1637349365.296875
917,19.95,1637349365.3125
918,19.68,1637349365.328125
919,19.34,1637349365.34375
920,18.69,1637349365.359375
921,17.76,1637349365.375
922,16.88,1637349365.390625
923,16.43,1637349365.40625
924,16.75,1637349365.421875
925,17.95,1637349365.4375
926,19.76,1637349365.453125
927,21.7,1637349365.46875
928,23.19,1637349365.484375
929,23.7,1637349365.5
930,22.93,1637349365.515625
931,20.84,1637349365.53125
932,17.63,1637349365.546875
933,13.68,1637349365.5625
934,9.42,1637349365.578125
935,5.25,1637349365.59375
936,1.4,1637349365.609375
937,-2.05,1637349365.625
938,-5.22,1637349365.640625
939,-8.31,1637349365.65625
940,-11.49,1637349365.671875
941,-14.85,1637349365.6875
942,-18.29,1637349365.703125
943,-21.61,1637349365.71875
944,-24.56,1637349365.734375
945,-27.02,1637349365.75
946,-29.03,1637349365.765625
947,-30.9,1637349365.78125
948,-33.13,1637349365.796875
949,-36.26,1637349365.8125
950,-40.6,1637349365.828125
951,-45.95,1637349365.84375
952,-51.46,1637349365.859375
953,-55.69,1637349365.875
954,-57.01,1637349365.890625
955,-54.05,1637349365.90625
956,-46.33,1637349365.921875
957,-34.36,1637349365.9375
958,-19.71,1637349365.953125
959,-4.48,1637349365.96875
960,9.26,1637349365.984375
961,20.04,1637349366.0
962,27.18,1637349366.015625
963,30.88,1637349366.03125
964,31.9,1637349366.046875
965,31.14,1637349366.0625
966,29.49,1637349366.078125
967,27.58,1637349366.09375
968,25.78,1637349366.109375
969,24.28,1637349366.125
970,23.19,1637349366.140625
971,22.55,1637349366.15625
972,22.41,1637349366.171875
973,22.75,1637349366.1875
974,23.46,1637349366.203125
975,24.45,1637349366.21875
976,25.52,1637349366.234375
977,26.62,1637349366.25
978,27.71,1637349366.265625
979,28.8,1637349366.28125
980,29.84,1637349366.296875
981,30.76,1637349366.3125
982,31.36,1637349366.328125
983,31.44,1637349366.34375
984,30.81,1637349366.359375
985,29.38,1637349366.375
986,27.2,1637349366.390625
987,24.39,1637349366.40625
988,21.13,1637349366.421875
989,17.63,1637349366.4375
990,14.09,1637349366.453125
991,10.69,1637349366.46875
992,7.54,1637349366.484375
993,4.68,1637349366.5
994,2.01,1637349366.515625
995,-0.66,1637349366.53125
996,-3.55,1637349366.546875
997,-6.87,1637349366.5625
998,-10.61,1637349366.578125
999,-14.61,1637349366.59375
1000,-18.55,1637349366.609375
1001,-22.08,1637349366.625
1002,-24.93,1637349366.640625
1003,-27.09,1637349366.65625
1004,-28.8,1637349366.671875
1005,-30.55,1637349366.6875
1006,-32.93,1637349366.703125
1007,-36.4,1637349366.71875
1008,-41.22,1637349366.734375
1009,-47.21,1637349366.75
1010,-53.7,1637349366.765625
1011,-59.54,1637349366.78125
1012,-63.21,1637349366.796875
1013,-63.19,1637349366.8125
1014,-58.37,1637349366.828125
1015,-48.58,1637349366.84375
1016,-34.78,1637349366.859375
1017,-18.91,1637349366.875
1018,-3.32,1637349366.890625
1019,9.9,1637349366.90625
1020,19.5,1637349366.921875
1021,25.25,1637349366.9375
1022,27.79,1637349366.953125
1023,28.15,1637349366.96875
1024,27.35,1637349366.984375
1025,26.16,1637349367.0
1026,25.02,1637349367.015625
1027,24.23,1637349367.03125
1028,23.92,1637349367.046875
1029,24.1,1637349367.0625
1030,24.64,1637349367.078125
1031,25.31,1637349367.09375
1032,25.82,1637349367.109375
1033,26.0,1637349367.125
1034,25.82,1637349367.140625
1035,25.41,1637349367.15625
1036,25.0,1637349367.171875
1037,24.8,1637349367.1875
1038,24.97,1637349367.203125
1039,25.51,1637349367.21875
1040,26.32,1637349367.234375
1041,27.06,1637349367.25
1042,27.35,1637349367.265625
1043,26.77,1637349367.28125
1044,25.0,1637349367.296875
1045,22.0,1637349367.3125
1046,18.07,1637349367.328125
1047,13.77,1637349367.34375
1048,9.73,1637349367.359375
1049,6.4,1637349367.375
1050,3.89,1637349367.390625
1051,1.98,1637349367.40625
1052,0.23,1637349367.421875
1053,-1.82,1637349367.4375
1054,-4.42,1637349367.453125
1055,-7.52,1637349367.46875
1056,-10.83,1637349367.484375
1057,-13.99,1637349367.5
1058,-16.65,1637349367.515625
1059,-18.66,1637349367.53125
1060,-20.08,1637349367.546875
1061,-21.14,1637349367.5625
1062,-22.2,1637349367.578125
1063,-23.69,1637349367.59375
1064,-26.06,1637349367.609375
1065,-29.61,1637349367.625
1066,-34.31,1637349367.640625
1067,-39.62,1637349367.65625
1068,-44.43,1637349367.671875
1069,-47.2,1637349367.6875
1070,-46.4,1637349367.703125
1071,-40.98,1637349367.71875
1072,-30.85,1637349367.734375
1073,-17.05,1637349367.75
1074,-1.51,1637349367.765625
1075,13.48,1637349367.78125
1076,25.9,1637349367.796875
1077,34.54,1637349367.8125
1078,39.25,1637349367.828125
1079,40.71,1637349367.84375
1080,40.07,1637349367.859375
1081,38.39,1637349367.875
1082,36.32,1637349367.890625
1083,34.03,1637349367.90625
1084,31.4,1637349367.921875
1085,28.3,1637349367.9375
1086,24.76,1637349367.953125
1087,21.05,1637349367.96875
1088,17.52,1637349367.984375
1089,14.47,1637349368.0
1090,12.11,1637349368.015625
1091,10.56,1637349368.03125
1092,9.89,1637349368.046875
1093,10.13,1637349368.0625
1094,11.22,1637349368.078125
1095,12.9,1637349368.09375
1096,14.76,1637349368.109375
1097,16.25,1637349368.125
1098,16.96,1637349368.140625
1099,16.62,1637349368.15625
1100,15.22,1637349368.171875
1101,12.91,1637349368.1875
1102,9.82,1637349368.203125
1103,6.09,1637349368.21875
1104,1.73,1637349368.234375
1105,-3.23,1637349368.25
1106,-8.7,1637349368.265625
1107,-14.43,1637349368.28125
1108,-20.09,1637349368.296875
1109,-25.32,1637349368.3125
1110,-29.84,1637349368.328125
1111,-33.54,1637349368.34375
1112,-36.54,1637349368.359375
1113,-39.19,1637349368.375
1114,-41.97,1637349368.390625
1115,-45.4,1637349368.40625
1116,-49.73,1637349368.421875
1117,-54.75,1637349368.4375
1118,-59.54,1637349368.453125
1119,-62.6,1637349368.46875
1120,-62.17,1637349368.484375
1121,-56.72,1637349368.5
1122,-45.59,1637349368.515625
1123,-29.43,1637349368.53125
1124,-10.19,1637349368.546875
1125,9.35,1637349368.5625
1126,26.34,1637349368.578125
1127,38.68,1637349368.59375
1128,45.55,1637349368.609375
1129,47.44,1637349368.625
1130,45.87,1637349368.640625
1131,42.76,1637349368.65625
1132,39.83,1637349368.671875
1133,38.28,1637349368.6875
1134,38.51,1637349368.703125
1135,40.17,1637349368.71875
1136,42.37,1637349368.734375
1137,44.03,1637349368.75
1138,44.17,1637349368.765625
1139,42.32,1637349368.78125
1140,38.66,1637349368.796875
1141,33.87,1637349368.8125
1142,28.92,1637349368.828125
1143,24.66,1637349368.84375
1144,21.57,1637349368.859375
1145,19.68,1637349368.875
1146,18.71,1637349368.890625
1147,18.26,1637349368.90625
1148,17.96,1637349368.921875
1149,17.48,1637349368.9375
1150,16.6,1637349368.953125
1151,15.13,1637349368.96875
1152,13.0,1637349368.984375
1153,10.22,1637349369.0
1154,6.95,1637349369.015625
1155,3.37,1637349369.03125
1156,-0.41,1637349369.046875
1157,-4.39,1637349369.0625
1158,-8.67,1637349369.078125
1159,-13.25,1637349369.09375
1160,-18.06,1637349369.109375
1161,-22.79,1637349369.125
1162,-27.12,1637349369.140625
1163,-30.79,1637349369.15625
1164,-33.88,1637349369.171875
1165,-36.79,1637349369.1875
1166,-40.19,1637349369.203125
1167,-44.67,1637349369.21875
1168,-50.45,1637349369.234375
1169,-57.03,1637349369.25
1170,-63.09,1637349369.265625
1171,-66.7,1637349369.28125
1172,-65.76,1637349369.296875
1173,-58.78,1637349369.3125
1174,-45.46,1637349369.328125
1175,-27.01,1637349369.34375
1176,-5.87,1637349369.359375
1177,14.85,1637349369.375
1178,32.35,1637349369.390625
1179,44.77,1637349369.40625
1180,51.59,1637349369.421875
1181,53.5,1637349369.4375
1182,51.84,1637349369.453125
1183,48.12,1637349369.46875
1184,43.67,1637349369.484375
1185,39.39,1637349369.5
1186,35.83,1637349369.515625
1187,33.25,1637349369.53125
1188,31.62,1637349369.546875
1189,30.71,1637349369.5625
1190,30.11,1637349369.578125
1191,29.38,1637349369.59375
1192,28.15,1637349369.609375
1193,26.34,1637349369.625
1194,24.12,1637349369.640625
1195,21.89,1637349369.65625
1196,20.12,1637349369.671875
1197,19.12,1637349369.6875
1198,18.98,1637349369.703125
1199,19.43,1637349369.71875
1200,20.04,1637349369.734375
1201,20.27,1637349369.75
1202,19.65,1637349369.765625
1203,17.94,1637349369.78125
1204,15.17,1637349369.796875
1205,11.58,1637349369.8125
1206,7.64,1637349369.828125
1207,3.86,1637349369.84375
1208,0.62,1637349369.859375
1209,-1.9,1637349369.875
1210,-3.86,1637349369.890625
1211,-5.69,1637349369.90625
1212,-7.91,1637349369.921875
1213,-10.87,1637349369.9375
1214,-14.65,1637349369.953125
1215,-18.98,1637349369.96875
1216,-23.3,1637349369.984375
1217,-27.07,1637349370.0
1218,-29.87,1637349370.015625
1219,-31.67,1637349370.03125
1220,-32.8,1637349370.046875
1221,-33.93,1637349370.0625
1222,-35.79,1637349370.078125
1223,-39.01,1637349370.09375
1224,-43.81,1637349370.109375
1225,-49.79,1637349370.125
1226,-55.85,1637349370.140625
1227,-60.23,1637349370.15625
1228,-60.94,1637349370.171875
1229,-56.33,1637349370.1875
1230,-45.67,1637349370.203125
1231,-29.68,1637349370.21875
1232,-10.38,1637349370.234375
1233,9.4,1637349370.25
1234,26.77,1637349370.265625
1235,39.63,1637349370.28125
1236,47.07,1637349370.296875
1237,49.41,1637349370.3125
1238,47.77,1637349370.328125
1239,43.71,1637349370.34375
1240,38.66,1637349370.359375
1241,33.72,1637349370.375
1242,29.57,1637349370.390625
1243,26.46,1637349370.40625
1244,24.34,1637349370.421875
1245,22.95,1637349370.4375
1246,22.05,1637349370.453125
1247,21.46,1637349370.46875
1248,21.08,1637349370.484375
1249,20.88,1637349370.5
1250,20.79,1637349370.515625
1251,20.76,1637349370.53125
1252,20.78,1637349370.546875
1253,20.91,1637349370.5625
1254,21.27,1637349370.578125
1255,21.87,1637349370.59375
1256,22.55,1637349370.609375
1257,22.91,1637349370.625
1258,22.46,1637349370.640625
1259,20.81,1637349370.65625
1260,17.86,1637349370.671875
1261,13.86,1637349370.6875
1262,9.34,1637349370.703125
1263,4.93,1637349370.71875
1264,1.12,1637349370.734375
1265,-1.84,1637349370.75
1266,-4.02,1637349370.765625
1267,-5.75,1637349370.78125
1268,-7.51,1637349370.796875
1269,-9.75,1637349370.8125
1270,-12.75,1637349370.828125
1271,-16.43,1637349370.84375
1272,-20.42,1637349370.859375
1273,-24.09,1637349370.875
1274,-26.92,1637349370.890625
1275,-28.57,1637349370.90625
1276,-29.21,1637349370.921875
1277,-29.4,1637349370.9375
1278,-29.99,1637349370.953125
1279,-31.8,1637349370.96875
1280,-35.31,1637349370.984375
1281,-40.42,1637349371.0
1282,-46.27,1637349371.015625
1283,-51.36,1637349371.03125
1284,-53.89,1637349371.046875
1285,-52.3,1637349371.0625
1286,-45.71,1637349371.078125
1287,-34.32,1637349371.09375
1288,-19.45,1637349371.109375
1289,-3.2,1637349371.125
1290,12.12,1637349371.140625
1291,24.59,1637349371.15625
1292,33.12,1637349371.171875
1293,37.55,1637349371.1875
1294,38.5,1637349371.203125
1295,36.99,1637349371.21875
1296,34.09,1637349371.234375
1297,30.67,1637349371.25
1298,27.31,1637349371.265625
1299,24.37,1637349371.28125
1300,22.03,1637349371.296875
1301,20.32,1637349371.3125
1302,19.27,1637349371.328125
1303,18.76,1637349371.34375
1304,18.54,1637349371.359375
1305,18.36,1637349371.375
1306,18.0,1637349371.390625
1307,17.41,1637349371.40625
1308,16.73,1637349371.421875
1309,16.29,1637349371.4375
1310,16.3,1637349371.453125
1311,16.76,1637349371.46875
1312,17.31,1637349371.484375
1313,17.32,1637349371.5
1314,16.22,1637349371.515625
1315,13.75,1637349371.53125
1316,10.19,1637349371.546875
1317,6.19,1637349371.5625
1318,2.49,1637349371.578125
1319,-0.47,1637349371.59375
1320,-2.76,1637349371.609375
1321,-4.82,1637349371.625
1322,-7.26,1637349371.640625
1323,-10.44,1637349371.65625
1324,-14.35,1637349371.671875
1325,-18.58,1637349371.6875
1326,-22.55,1637349371.703125
1327,-25.72,1637349371.71875
1328,-27.86,1637349371.734375
1329,-29.08,1637349371.75
1330,-29.89,1637349371.765625
1331,-30.99,1637349371.78125
1332,-33.09,1637349371.796875
1333,-36.66,1637349371.8125
1334,-41.6,1637349371.828125
1335,-47.1,1637349371.84375
1336,-51.69,1637349371.859375
1337,-53.57,1637349371.875
1338,-51.14,1637349371.890625
1339,-43.61,1637349371.90625
1340,-31.33,1637349371.921875
1341,-15.81,1637349371.9375
1342,0.66,1637349371.953125
1343,15.73,1637349371.96875
1344,27.52,1637349371.984375
1345,35.08,1637349372.0
1346,38.42,1637349372.015625
1347,38.27,1637349372.03125
1348,35.74,1637349372.046875
1349,31.97,1637349372.0625
1350,27.93,1637349372.078125
1351,24.23,1637349372.09375
1352,21.18,1637349372.109375
1353,18.85,1637349372.125
1354,17.07,1637349372.140625
1355,15.64,1637349372.15625
1356,14.41,1637349372.171875
1357,13.27,1637349372.1875
1358,12.22,1637349372.203125
1359,11.3,1637349372.21875
1360,10.63,1637349372.234375
1361,10.3,1637349372.25
1362,10.41,1637349372.265625
1363,11.01,1637349372.28125
1364,12.0,1637349372.296875
1365,13.13,1637349372.3125
1366,14.1,1637349372.328125
1367,14.58,1637349372.34375
1368,14.36,1637349372.359375
1369,13.35,1637349372.375
1370,11.56,1637349372.390625
1371,9.08,1637349372.40625
1372,6.07,1637349372.421875
1373,2.75,1637349372.4375
1374,-0.6,1637349372.453125
1375,-3.7,1637349372.46875
1376,-6.41,1637349372.484375
1377,-8.84,1637349372.5
1378,-11.25,1637349372.515625
1379,-14.0,1637349372.53125
1380,-17.26,1637349372.546875
1381,-20.92,1637349372.5625
1382,-24.52,1637349372.578125
1383,-27.52,1637349372.59375
1384,-29.54,1637349372.609375
1385,-30.58,1637349372.625
1386,-31.03,1637349372.640625
1387,-31.6,1637349372.65625
1388,-33.08,1637349372.671875
1389,-36.01,1637349372.6875
1390,-40.44,1637349372.703125
1391,-45.79,1637349372.71875
1392,-50.8,1637349372.734375
1393,-53.8,1637349372.75
1394,-53.01,1637349372.765625
1395,-47.21,1637349372.78125
1396,-36.12,1637349372.796875
1397,-20.75,1637349372.8125
1398,-3.16,1637349372.828125
1399,14.0,1637349372.84375
1400,28.23,1637349372.859375
1401,37.89,1637349372.875
1402,42.47,1637349372.890625
1403,42.6,1637349372.90625
1404,39.65,1637349372.921875
1405,35.18,1637349372.9375
1406,30.51,1637349372.953125
1407,26.47,1637349372.96875
1408,23.4,1637349372.984375
1409,21.29,1637349373.0
1410,19.93,1637349373.015625
1411,19.12,1637349373.03125
1412,18.65,1637349373.046875
1413,18.35,1637349373.0625
1414,18.03,1637349373.078125
1415,17.57,1637349373.09375
1416,16.92,1637349373.109375
1417,16.09,1637349373.125
1418,15.19,1637349373.140625
1419,14.31,1637349373.15625
1420,13.54,1637349373.171875
1421,12.9,1637349373.1875
1422,12.38,1637349373.203125
1423,11.89,1637349373.21875
1424,11.26,1637349373.234375
1425,10.23,1637349373.25
1426,8.54,1637349373.265625
1427,6.02,1637349373.28125
1428,2.77,1637349373.296875
1429,-0.89,1637349373.3125
1430,-4.43,1637349373.328125
1431,-7.4,1637349373.34375
1432,-9.52,1637349373.359375
1433,-10.9,1637349373.375
1434,-11.89,1637349373.390625
1435,-12.99,1637349373.40625
1436,-14.55,1637349373.421875
1437,-16.68,1637349373.4375
1438,-19.24,1637349373.453125
1439,-21.87,1637349373.46875
1440,-24.21,1637349373.484375
1441,-26.0,1637349373.5
1442,-27.14,1637349373.515625
1443,-27.75,1637349373.53125
1444,-28.13,1637349373.546875
1445,-28.76,1637349373.5625
1446,-30.12,1637349373.578125
1447,-32.64,1637349373.59375
1448,-36.53,1637349373.609375
1449,-41.5,1637349373.625
1450,-46.71,1637349373.640625
1451,-50.73,1637349373.65625
1452,-51.8,1637349373.671875
1453,-48.41,1637349373.6875
1454,-39.85,1637349373.703125
1455,-26.62,1637349373.71875
1456,-10.51,1637349373.734375
1457,5.9,1637349373.75
1458,20.07,1637349373.765625
1459,30.17,1637349373.78125
1460,35.57,1637349373.796875
1461,36.82,1637349373.8125
1462,35.15,1637349373.828125
1463,31.91,1637349373.84375
1464,28.24,1637349373.859375
1465,24.78,1637349373.875
1466,21.89,1637349373.890625
1467,19.71,1637349373.90625
1468,18.31,1637349373.921875
1469,17.69,1637349373.9375
1470,17.7,1637349373.953125
1471,18.03,1637349373.96875
1472,18.31,1637349373.984375
1473,18.21,1637349374.0
1474,17.61,1637349374.015625
1475,16.62,1637349374.03125
1476,15.56,1637349374.046875
1477,14.72,1637349374.0625
1478,14.27,1637349374.078125
1479,14.12,1637349374.09375
1480,13.99,1637349374.109375
1481,13.51,1637349374.125
1482,12.44,1637349374.140625
1483,10.71,1637349374.15625
1484,8.51,1637349374.171875
1485,6.09,1637349374.1875
1486,3.68,1637349374.203125
1487,1.38,1637349374.21875
1488,-0.79,1637349374.234375
1489,-2.82,1637349374.25
1490,-4.67,1637349374.265625
1491,-6.34,1637349374.28125
1492,-7.85,1637349374.296875
1493,-9.35,1637349374.3125
1494,-11.04,1637349374.328125
1495,-13.08,1637349374.34375
1496,-15.5,1637349374.359375
1497,-18.11,1637349374.375
1498,-20.54,1637349374.390625
1499,-22.43,1637349374.40625
1500,-23.51,1637349374.421875
1501,-23.76,1637349374.4375
1502,-23.37,1637349374.453125
1503,-22.74,1637349374.46875
1504,-22.37,1637349374.484375
1505,-22.85,1637349374.5
1506,-24.67,1637349374.515625
1507,-28.07,1637349374.53125
1508,-32.69,1637349374.546875
1509,-37.55,1637349374.5625
1510,-40.99,1637349374.578125
1511,-41.18,1637349374.59375
1512,-36.66,1637349374.609375
1513,-27.03,1637349374.625
1514,-13.26,1637349374.640625
1515,2.58,1637349374.65625
1516,17.88,1637349374.671875
1517,30.35,1637349374.6875
1518,38.66,1637349374.703125
1519,42.58,1637349374.71875
1520,42.78,1637349374.734375
1521,40.34,1637349374.75
1522,36.33,1637349374.765625
1523,31.6,1637349374.78125
1524,26.79,1637349374.796875
1525,22.42,1637349374.8125
1526,18.95,1637349374.828125
1527,16.65,1637349374.84375
1528,15.54,1637349374.859375
1529,15.35,1637349374.875
1530,15.6,1637349374.890625
1531,15.9,1637349374.90625
1532,16.02,1637349374.921875
1533,16.01,1637349374.9375
1534,16.01,1637349374.953125
1535,16.16,1637349374.96875
1536,16.46,1637349374.984375
1537,16.77,1637349375.0
1538,16.83,1637349375.015625
1539,16.39,1637349375.03125
1540,15.27,1637349375.046875
1541,13.37,1637349375.0625
1542,10.74,1637349375.078125
1543,7.51,1637349375.09375
1544,3.99,1637349375.109375
1545,0.49,1637349375.125
1546,-2.71,1637349375.140625
1547,-5.51,1637349375.15625
1548,-7.93,1637349375.171875
1549,-10.16,1637349375.1875
1550,-12.36,1637349375.203125
1551,-14.69,1637349375.21875
1552,-17.16,1637349375.234375
1553,-19.66,1637349375.25
1554,-22.09,1637349375.265625
1555,-24.26,1637349375.28125
1556,-26.03,1637349375.296875
1557,-27.33,1637349375.3125
1558,-28.17,1637349375.328125
1559,-28.81,1637349375.34375
1560,-29.68,1637349375.359375
1561,-31.32,1637349375.375
1562,-34.14,1637349375.390625
1563,-38.22,1637349375.40625
1564,-43.05,1637349375.421875
1565,-47.48,1637349375.4375
1566,-49.94,1637349375.453125
1567,-48.85,1637349375.46875
1568,-43.19,1637349375.484375
1569,-32.91,1637349375.5
1570,-19.06,1637349375.515625
1571,-3.55,1637349375.53125
1572,11.33,1637349375.546875
1573,23.58,1637349375.5625
1574,31.95,1637349375.578125
1575,36.17,1637349375.59375
1576,36.79,1637349375.609375
1577,34.87,1637349375.625
1578,31.57,1637349375.640625
1579,27.82,1637349375.65625
1580,24.3,1637349375.671875
1581,21.37,1637349375.6875
1582,19.21,1637349375.703125
1583,17.83,1637349375.71875
1584,17.08,1637349375.734375
1585,16.74,1637349375.75
1586,16.55,1637349375.765625
1587,16.23,1637349375.78125
1588,15.7,1637349375.796875
1589,15.04,1637349375.8125
1590,14.4,1637349375.828125
1591,13.99,1637349375.84375
1592,13.88,1637349375.859375
1593,13.95,1637349375.875
1594,13.98,1637349375.890625
1595,13.71,1637349375.90625
1596,13.0,1637349375.921875
1597,11.8,1637349375.9375
1598,10.18,1637349375.953125
1599,8.21,1637349375.96875
1600,5.93,1637349375.984375
1601,3.35,1637349376.0
1602,0.49,1637349376.015625
1603,-2.52,1637349376.03125
1604,-5.45,1637349376.046875
1605,-8.07,1637349376.0625
1606,-10.17,1637349376.078125
1607,-11.63,1637349376.09375
1608,-12.56,1637349376.109375
1609,-13.22,1637349376.125
1610,-13.9,1637349376.140625
1611,-14.88,1637349376.15625
1612,-16.26,1637349376.171875
1613,-17.98,1637349376.1875
1614,-19.78,1637349376.203125
1615,-21.39,1637349376.21875
1616,-22.54,1637349376.234375
1617,-23.23,1637349376.25
1618,-23.65,1637349376.265625
1619,-24.26,1637349376.28125
1620,-25.76,1637349376.296875
1621,-28.75,1637349376.3125
1622,-33.57,1637349376.328125
1623,-39.95,1637349376.34375
1624,-46.8,1637349376.359375
1625,-52.3,1637349376.375
1626,-54.32,1637349376.390625
1627,-51.03,1637349376.40625
1628,-41.68,1637349376.421875
1629,-26.98,1637349376.4375
1630,-9.05,1637349376.453125
1631,9.21,1637349376.46875
1632,24.91,1637349376.484375
1633,36.11,1637349376.5
1634,42.11,1637349376.515625
1635,43.44,1637349376.53125
1636,41.34,1637349376.546875
1637,37.26,1637349376.5625
1638,32.4,1637349376.578125
1639,27.58,1637349376.59375
1640,23.33,1637349376.609375
1641,19.94,1637349376.625
1642,17.59,1637349376.640625
1643,16.28,1637349376.65625
1644,15.81,1637349376.671875
1645,15.82,1637349376.6875
1646,15.87,1637349376.703125
1647,15.63,1637349376.71875
1648,15.01,1637349376.734375
1649,14.25,1637349376.75
1650,13.75,1637349376.765625
1651,13.91,1637349376.78125
1652,14.9,1637349376.796875
1653,16.51,1637349376.8125
1654,18.24,1637349376.828125
1655,19.47,1637349376.84375
1656,19.7,1637349376.859375
1657,18.75,1637349376.875
1658,16.78,1637349376.890625
1659,14.15,1637349376.90625
1660,11.27,1637349376.921875
1661,8.45,1637349376.9375
1662,5.8,1637349376.953125
1663,3.33,1637349376.96875
1664,0.95,1637349376.984375
1665,-1.36,1637349377.0
1666,-3.55,1637349377.015625
1667,-5.5,1637349377.03125
1668,-7.14,1637349377.046875
1669,-8.47,1637349377.0625
1670,-9.64,1637349377.078125
1671,-10.9,1637349377.09375
1672,-12.48,1637349377.109375
1673,-14.49,1637349377.125
1674,-16.83,1637349377.140625
1675,-19.25,1637349377.15625
1676,-21.43,1637349377.171875
1677,-23.17,1637349377.1875
1678,-24.4,1637349377.203125
1679,-25.24,1637349377.21875
1680,-26.03,1637349377.234375
1681,-27.19,1637349377.25
1682,-29.18,1637349377.265625
1683,-32.45,1637349377.28125
1684,-37.15,1637349377.296875
1685,-42.96,1637349377.3125
1686,-48.89,1637349377.328125
1687,-53.32,1637349377.34375
1688,-54.4,1637349377.359375
1689,-50.62,1637349377.375
1690,-41.47,1637349377.390625
1691,-27.76,1637349377.40625
1692,-11.47,1637349377.421875
1693,4.83,1637349377.4375
1694,18.72,1637349377.453125
1695,28.66,1637349377.46875
1696,34.19,1637349377.484375
1697,35.81,1637349377.5
1698,34.57,1637349377.515625
1699,31.65,1637349377.53125
1700,28.08,1637349377.546875
1701,24.66,1637349377.5625
1702,21.98,1637349377.578125
1703,20.34,1637349377.59375
1704,19.78,1637349377.609375
1705,20.03,1637349377.625
1706,20.65,1637349377.640625
1707,21.22,1637349377.65625
1708,21.57,1637349377.671875
1709,21.75,1637349377.6875
1710,22.03,1637349377.703125
1711,22.62,1637349377.71875
1712,23.53,1637349377.734375
1713,24.55,1637349377.75
1714,25.38,1637349377.765625
1715,25.73,1637349377.78125
1716,25.45,1637349377.796875
1717,24.51,1637349377.8125
1718,23.02,1637349377.828125
1719,21.09,1637349377.84375
1720,18.86,1637349377.859375
1721,16.44,1637349377.875
1722,13.91,1637349377.890625
1723,11.3,1637349377.90625
1724,8.56,1637349377.921875
1725,5.65,1637349377.9375
1726,2.62,1637349377.953125
1727,-0.33,1637349377.96875
1728,-2.96,1637349377.984375
1729,-5.09,1637349378.0
1730,-6.77,1637349378.015625
1731,-8.31,1637349378.03125
1732,-10.14,1637349378.046875
1733,-12.59,1637349378.0625
1734,-15.7,1637349378.078125
1735,-19.17,1637349378.09375
1736,-22.53,1637349378.109375
1737,-25.36,1637349378.125
1738,-27.5,1637349378.140625
1739,-29.06,1637349378.15625
1740,-30.41,1637349378.171875
1741,-32.04,1637349378.1875
1742,-34.41,1637349378.203125
1743,-37.87,1637349378.21875
1744,-42.43,1637349378.234375
1745,-47.63,1637349378.25
1746,-52.45,1637349378.265625
1747,-55.36,1637349378.28125
1748,-54.69,1637349378.296875
1749,-49.23,1637349378.3125
1750,-38.66,1637349378.328125
1751,-23.95,1637349378.34375
1752,-7.09,1637349378.359375
1753,9.42,1637349378.375
1754,23.38,1637349378.390625
1755,33.38,1637349378.40625
1756,39.14,1637349378.421875
1757,41.23,1637349378.4375
1758,40.67,1637349378.453125
1759,38.48,1637349378.46875
1760,35.42,1637349378.484375
1761,31.98,1637349378.5
1762,28.48,1637349378.515625
1763,25.26,1637349378.53125
1764,22.58,1637349378.546875
1765,20.67,1637349378.5625
1766,19.57,1637349378.578125
1767,19.15,1637349378.59375
1768,19.21,1637349378.609375
1769,19.56,1637349378.625
1770,20.12,1637349378.640625
1771,20.88,1637349378.65625
1772,21.85,1637349378.671875
1773,22.92,1637349378.6875
1774,23.9,1637349378.703125
1775,24.5,1637349378.71875
1776,24.42,1637349378.734375
1777,23.5,1637349378.75
1778,21.72,1637349378.765625
1779,19.25,1637349378.78125
1780,16.43,1637349378.796875
1781,13.61,1637349378.8125
1782,11.05,1637349378.828125
1783,8.86,1637349378.84375
1784,6.88,1637349378.859375
1785,4.83,1637349378.875
1786,2.44,1637349378.890625
1787,-0.41,1637349378.90625
1788,-3.59,1637349378.921875
1789,-6.8,1637349378.9375
1790,-9.64,1637349378.953125
1791,-11.86,1637349378.96875
1792,-13.45,1637349378.984375
1793,-14.66,1637349379.0
1794,-15.92,1637349379.015625
1795,-17.61,1637349379.03125
1796,-19.93,1637349379.046875
1797,-22.76,1637349379.0625
1798,-25.73,1637349379.078125
1799,-28.44,1637349379.09375
1800,-30.66,1637349379.109375
1801,-32.47,1637349379.125
1802,-34.31,1637349379.140625
1803,-36.84,1637349379.15625
1804,-40.59,1637349379.171875
1805,-45.69,1637349379.1875
1806,-51.56,1637349379.203125
1807,-56.92,1637349379.21875
1808,-60.02,1637349379.234375
1809,-59.13,1637349379.25
1810,-53.16,1637349379.265625
1811,-42.05,1637349379.28125
1812,-26.94,1637349379.296875
1813,-9.89,1637349379.3125
1814,6.67,1637349379.328125
1815,20.63,1637349379.34375
1816,30.67,1637349379.359375
1817,36.43,1637349379.375
1818,38.34,1637349379.390625
1819,37.35,1637349379.40625
1820,34.53,1637349379.421875
1821,30.88,1637349379.4375
1822,27.21,1637349379.453125
1823,24.05,1637349379.46875
1824,21.65,1637349379.484375
1825,20.03,1637349379.5
1826,19.02,1637349379.515625
1827,18.37,1637349379.53125
1828,17.89,1637349379.546875
1829,17.51,1637349379.5625
1830,17.38,1637349379.578125
1831,17.68,1637349379.59375
1832,18.51,1637349379.609375
1833,19.79,1637349379.625
1834,21.26,1637349379.640625
1835,22.53,1637349379.65625
1836,23.3,1637349379.671875
1837,23.41,1637349379.6875
1838,22.9,1637349379.703125
1839,21.93,1637349379.71875
1840,20.65,1637349379.734375
1841,19.16,1637349379.75
1842,17.41,1637349379.765625
1843,15.35,1637349379.78125
1844,12.88,1637349379.796875
1845,10.02,1637349379.8125
1846,6.87,1637349379.828125
1847,3.61,1637349379.84375
1848,0.42,1637349379.859375
1849,-2.55,1637349379.875
1850,-5.26,1637349379.890625
1851,-7.81,1637349379.90625
1852,-10.35,1637349379.921875
1853,-13.08,1637349379.9375
1854,-16.11,1637349379.953125
1855,-19.39,1637349379.96875
1856,-22.74,1637349379.984375
1857,-25.89,1637349380.0
1858,-28.59,1637349380.015625
1859,-30.69,1637349380.03125
1860,-32.23,1637349380.046875
1861,-33.43,1637349380.0625
1862,-34.69,1637349380.078125
1863,-36.52,1637349380.09375
1864,-39.37,1637349380.109375
1865,-43.52,1637349380.125
1866,-48.74,1637349380.140625
1867,-54.15,1637349380.15625
1868,-58.24,1637349380.171875
1869,-59.19,1637349380.1875
1870,-55.48,1637349380.203125
1871,-46.45,1637349380.21875
1872,-32.66,1637349380.234375
1873,-15.88,1637349380.25
1874,1.49,1637349380.265625
1875,17.06,1637349380.28125
1876,29.13,1637349380.296875
1877,36.98,1637349380.3125
1878,40.84,1637349380.328125
1879,41.51,1637349380.34375
1880,40.01,1637349380.359375
1881,37.23,1637349380.375
1882,33.95,1637349380.390625
1883,30.73,1637349380.40625
1884,28.0,1637349380.421875
1885,26.0,1637349380.4375
1886,24.85,1637349380.453125
1887,24.45,1637349380.46875
1888,24.58,1637349380.484375
1889,24.99,1637349380.5
1890,25.43,1637349380.515625
1891,25.81,1637349380.53125
1892,26.07,1637349380.546875
1893,26.25,1637349380.5625
1894,26.45,1637349380.578125
1895,26.76,1637349380.59375
1896,27.25,1637349380.609375
1897,27.81,1637349380.625
1898,28.15,1637349380.640625
1899,27.78,1637349380.65625
1900,26.23,1637349380.671875
1901,23.24,1637349380.6875
1902,18.98,1637349380.703125
1903,14.01,1637349380.71875
1904,9.12,1637349380.734375
1905,5.02,1637349380.75
1906,2.0,1637349380.765625
1907,-0.11,1637349380.78125
1908,-1.85,1637349380.796875
1909,-3.88,1637349380.8125
1910,-6.72,1637349380.828125
1911,-10.45,1637349380.84375
1912,-14.8,1637349380.859375
1913,-19.17,1637349380.875
1914,-22.91,1637349380.890625
1915,-25.62,1637349380.90625
1916,-27.21,1637349380.921875
1917,-27.99,1637349380.9375
1918,-28.54,1637349380.953125
1919,-29.55,1637349380.96875
1920,-31.61,1637349380.984375
1921,-35.06,1637349381.0
1922,-39.95,1637349381.015625
1923,-45.86,1637349381.03125
1924,-51.9,1637349381.046875
1925,-56.69,1637349381.0625
1926,-58.66,1637349381.078125
1927,-56.44,1637349381.09375
1928,-49.34,1637349381.109375
1929,-37.74,1637349381.125
1930,-23.06,1637349381.140625
1931,-7.34,1637349381.15625
1932,7.29,1637349381.171875
1933,19.24,1637349381.1875
1934,27.66,1637349381.203125
1935,32.42,1637349381.21875
1936,33.91,1637349381.234375
1937,32.68,1637349381.25
1938,29.34,1637349381.265625
1939,24.52,1637349381.28125
1940,18.91,1637349381.296875
1941,13.39,1637349381.3125
1942,9.09,1637349381.328125
1943,7.23,1637349381.34375
1944,8.84,1637349381.359375
1945,14.41,1637349381.375
1946,23.48,1637349381.390625
1947,34.69,1637349381.40625
1948,46.05,1637349381.421875
1949,55.53,1637349381.4375
1950,61.71,1637349381.453125
1951,64.13,1637349381.46875
1952,63.19,1637349381.484375
1953,59.78,1637349381.5
1954,54.8,1637349381.515625
1955,48.82,1637349381.53125
1956,42.13,1637349381.546875
1957,34.94,1637349381.5625
1958,27.5,1637349381.578125
1959,20.2,1637349381.59375
1960,13.43,1637349381.609375
1961,7.43,1637349381.625
1962,2.3,1637349381.640625
1963,-2.06,1637349381.65625
1964,-5.83,1637349381.671875
1965,-9.21,1637349381.6875
1966,-12.42,1637349381.703125
1967,-15.68,1637349381.71875
1968,-19.15,1637349381.734375
1969,-22.91,1637349381.75
1970,-26.89,1637349381.765625
1971,-30.86,1637349381.78125
1972,-34.51,1637349381.796875
1973,-37.57,1637349381.8125
1974,-39.89,1637349381.828125
1975,-41.51,1637349381.84375
1976,-42.69,1637349381.859375
1977,-43.91,1637349381.875
1978,-45.73,1637349381.890625
1979,-48.68,1637349381.90625
1980,-52.97,1637349381.921875
1981,-58.27,1637349381.9375
1982,-63.51,1637349381.953125
1983,-67.05,1637349381.96875
1984,-67.05,1637349381.984375
1985,-62.08,1637349382.0
1986,-51.69,1637349382.015625
1987,-36.65,1637349382.03125
1988,-18.85,1637349382.046875
1989,-0.81,1637349382.0625
1990,15.09,1637349382.078125
1991,27.2,1637349382.09375
1992,34.89,1637349382.109375
1993,38.48,1637349382.125
1994,38.87,1637349382.140625
1995,37.15,1637349382.15625
1996,34.27,1637349382.171875
1997,30.93,1637349382.1875
1998,27.66,1637349382.203125
1999,24.87,1637349382.21875
2000,22.88,1637349382.234375
2001,21.91,1637349382.25
2002,21.94,1637349382.265625
2003,22.73,1637349382.28125
2004,23.86,1637349382.296875
2005,24.88,1637349382.3125
2006,25.46,1637349382.328125
2007,25.47,1637349382.34375
2008,24.97,1637349382.359375
2009,24.15,1637349382.375
2010,23.26,1637349382.390625
2011,22.49,1637349382.40625
2012,21.9,1637349382.421875
2013,21.37,1637349382.4375
2014,20.67,1637349382.453125
2015,19.48,1637349382.46875
2016,17.56,1637349382.484375
2017,14.87,1637349382.5
2018,11.56,1637349382.515625
2019,7.98,1637349382.53125
2020,4.52,1637349382.546875
2021,1.49,1637349382.5625
2022,-1.06,1637349382.578125
2023,-3.31,1637349382.59375
2024,-5.59,1637349382.609375
2025,-8.24,1637349382.625
2026,-11.48,1637349382.640625
2027,-15.29,1637349382.65625
2028,-19.37,1637349382.671875
2029,-23.28,1637349382.6875
2030,-26.56,1637349382.703125
2031,-28.9,1637349382.71875
2032,-30.3,1637349382.734375
2033,-31.07,1637349382.75
2034,-31.8,1637349382.765625
2035,-33.17,1637349382.78125
2036,-35.83,1637349382.796875
2037,-40.09,1637349382.8125
2038,-45.73,1637349382.828125
2039,-51.87,1637349382.84375
2040,-57.01,1637349382.859375
2041,-59.34,1637349382.875
2042,-57.19,1637349382.890625
2043,-49.7,1637349382.90625
2044,-37.22,1637349382.921875
2045,-21.4,1637349382.9375
2046,-4.61,1637349382.953125
2047,10.68,1637349382.96875
2048,22.74,1637349382.984375
2049,30.83,1637349383.0
2050,35.22,1637349383.015625
2051,36.67,1637349383.03125
2052,36.08,1637349383.046875
2053,34.15,1637349383.0625
2054,31.39,1637349383.078125
2055,28.27,1637349383.09375
2056,25.26,1637349383.109375
2057,22.79,1637349383.125
2058,21.18,1637349383.140625
2059,20.48,1637349383.15625
2060,20.48,1637349383.171875
2061,20.82,1637349383.1875
2062,21.18,1637349383.203125
2063,21.42,1637349383.21875
2064,21.57,1637349383.234375
2065,21.81,1637349383.25
2066,22.29,1637349383.265625
2067,23.04,1637349383.28125
2068,23.9,1637349383.296875
2069,24.59,1637349383.3125
2070,24.73,1637349383.328125
2071,24.09,1637349383.34375
2072,22.55,1637349383.359375
2073,20.19,1637349383.375
2074,17.24,1637349383.390625
2075,14.0,1637349383.40625
2076,10.8,1637349383.421875
2077,7.8,1637349383.4375
2078,4.99,1637349383.453125
2079,2.12,1637349383.46875
2080,-1.14,1637349383.484375
2081,-5.08,1637349383.5
2082,-9.7,1637349383.515625
2083,-14.7,1637349383.53125
2084,-19.48,1637349383.546875
2085,-23.48,1637349383.5625
2086,-26.37,1637349383.578125
2087,-28.27,1637349383.59375
2088,-29.69,1637349383.609375
2089,-31.43,1637349383.625
2090,-34.24,1637349383.640625
2091,-38.54,1637349383.65625
2092,-44.2,1637349383.671875
2093,-50.4,1637349383.6875
2094,-55.67,1637349383.703125
2095,-58.17,1637349383.71875
2096,-56.24,1637349383.734375
2097,-48.94,1637349383.75
2098,-36.54,1637349383.765625
2099,-20.57,1637349383.78125
2100,-3.46,1637349383.796875
2101,12.23,1637349383.8125
2102,24.52,1637349383.828125
2103,32.5,1637349383.84375
2104,36.35,1637349383.859375
2105,37.02,1637349383.875
2106,35.65,1637349383.890625
2107,33.2,1637349383.90625
2108,30.23,1637349383.921875
2109,27.04,1637349383.9375
2110,23.81,1637349383.953125
2111,20.8,1637349383.96875
2112,18.35,1637349383.984375
2113,16.77,1637349384.0
2114,16.2,1637349384.015625
2115,16.51,1637349384.03125
2116,17.4,1637349384.046875
2117,18.46,1637349384.0625
2118,19.42,1637349384.078125
2119,20.22,1637349384.09375
2120,20.98,1637349384.109375
2121,21.83,1637349384.125
2122,22.77,1637349384.140625
2123,23.58,1637349384.15625
2124,23.83,1637349384.171875
2125,23.07,1637349384.1875
2126,21.03,1637349384.203125
2127,17.69,1637349384.21875
2128,13.35,1637349384.234375
2129,8.53,1637349384.25
2130,3.79,1637349384.265625
2131,-0.44,1637349384.28125
2132,-4.02,1637349384.296875
2133,-7.09,1637349384.3125
2134,-10.02,1637349384.328125
2135,-13.24,1637349384.34375
2136,-17.0,1637349384.359375
2137,-21.29,1637349384.375
2138,-25.77,1637349384.390625
2139,-29.92,1637349384.40625
2140,-33.29,1637349384.421875
2141,-35.66,1637349384.4375
2142,-37.16,1637349384.453125
2143,-38.21,1637349384.46875
2144,-39.41,1637349384.484375
2145,-41.4,1637349384.5
2146,-44.63,1637349384.515625
2147,-49.2,1637349384.53125
2148,-54.63,1637349384.546875
2149,-59.75,1637349384.5625
2150,-62.83,1637349384.578125
2151,-61.95,1637349384.59375
2152,-55.73,1637349384.609375
2153,-43.88,1637349384.625
2154,-27.56,1637349384.640625
2155,-9.07,1637349384.65625
2156,8.83,1637349384.671875
2157,23.8,1637349384.6875
2158,34.55,1637349384.703125
2159,40.94,1637349384.71875
2160,43.72,1637349384.734375
2161,43.94,1637349384.75
2162,42.58,1637349384.765625
2163,40.34,1637349384.78125
2164,37.72,1637349384.796875
2165,35.15,1637349384.8125
2166,33.01,1637349384.828125
2167,31.63,1637349384.84375
2168,31.12,1637349384.859375
2169,31.31,1637349384.875
2170,31.79,1637349384.890625
2171,32.03,1637349384.90625
2172,31.67,1637349384.921875
2173,30.54,1637349384.9375
2174,28.8,1637349384.953125
2175,26.81,1637349384.96875
2176,25.0,1637349384.984375
2177,23.64,1637349385.0
2178,22.83,1637349385.015625
2179,22.39,1637349385.03125
2180,21.95,1637349385.046875
2181,21.04,1637349385.0625
2182,19.34,1637349385.078125
2183,16.68,1637349385.09375
2184,13.24,1637349385.109375
2185,9.39,1637349385.125
2186,5.66,1637349385.140625
2187,2.45,1637349385.15625
2188,-0.05,1637349385.171875
2189,-2.05,1637349385.1875
2190,-4.02,1637349385.203125
2191,-6.49,1637349385.21875
2192,-9.79,1637349385.234375
2193,-13.93,1637349385.25
2194,-18.55,1637349385.265625
2195,-23.14,1637349385.28125
2196,-27.19,1637349385.296875
2197,-30.38,1637349385.3125
2198,-32.71,1637349385.328125
2199,-34.42,1637349385.34375
2200,-36.03,1637349385.359375
2201,-38.17,1637349385.375
2202,-41.39,1637349385.390625
2203,-46.0,1637349385.40625
2204,-51.73,1637349385.421875
2205,-57.54,1637349385.4375
2206,-61.75,1637349385.453125
2207,-62.41,1637349385.46875
2208,-57.99,1637349385.484375
2209,-47.97,1637349385.5
2210,-33.18,1637349385.515625
2211,-15.58,1637349385.53125
2212,2.35,1637349385.546875
2213,18.28,1637349385.5625
2214,30.58,1637349385.578125
2215,38.53,1637349385.59375
2216,42.26,1637349385.609375
2217,42.51,1637349385.625
2218,40.37,1637349385.640625
2219,37.05,1637349385.65625
2220,33.6,1637349385.671875
2221,30.81,1637349385.6875
2222,29.0,1637349385.703125
2223,28.04,1637349385.71875
2224,27.56,1637349385.734375
2225,27.14,1637349385.75
2226,26.6,1637349385.765625
2227,25.96,1637349385.78125
2228,25.46,1637349385.796875
2229,25.33,1637349385.8125
2230,25.69,1637349385.828125
2231,26.47,1637349385.84375
2232,27.48,1637349385.859375
2233,28.45,1637349385.875
2234,29.08,1637349385.890625
2235,29.0,1637349385.90625
2236,27.86,1637349385.921875
2237,25.5,1637349385.9375
2238,21.98,1637349385.953125
2239,17.72,1637349385.96875
2240,13.26,1637349385.984375
2241,9.03,1637349386.0
2242,5.17,1637349386.015625
2243,1.47,1637349386.03125
2244,-2.48,1637349386.046875
2245,-6.98,1637349386.0625
2246,-11.98,1637349386.078125
2247,-17.12,1637349386.09375
2248,-21.82,1637349386.109375
2249,-25.68,1637349386.125
2250,-28.57,1637349386.140625
2251,-30.74,1637349386.15625
2252,-32.72,1637349386.171875
2253,-35.13,1637349386.1875
2254,-38.57,1637349386.203125
2255,-43.42,1637349386.21875
2256,-49.62,1637349386.234375
2257,-56.46,1637349386.25
2258,-62.52,1637349386.265625
2259,-65.92,1637349386.28125
2260,-64.86,1637349386.296875
2261,-58.29,1637349386.3125
2262,-46.41,1637349386.328125
2263,-30.68,1637349386.34375
2264,-13.35,1637349386.359375
2265,3.14,1637349386.375
2266,16.96,1637349386.390625
2267,27.15,1637349386.40625
2268,33.6,1637349386.421875
2269,36.8,1637349386.4375
2270,37.41,1637349386.453125
2271,36.15,1637349386.46875
2272,33.69,1637349386.484375
2273,30.63,1637349386.5
2274,27.59,1637349386.515625
2275,25.04,1637349386.53125
2276,23.25,1637349386.546875
2277,22.2,1637349386.5625
2278,21.65,1637349386.578125
2279,21.26,1637349386.59375
2280,20.78,1637349386.609375
2281,20.15,1637349386.625
2282,19.52,1637349386.640625
2283,19.13,1637349386.65625
2284,19.2,1637349386.671875
2285,19.81,1637349386.6875
2286,20.82,1637349386.703125
2287,21.93,1637349386.71875
2288,22.82,1637349386.734375
2289,23.14,1637349386.75
2290,22.65,1637349386.765625
2291,21.16,1637349386.78125
2292,18.64,1637349386.796875
2293,15.21,1637349386.8125
2294,11.2,1637349386.828125
2295,7.07,1637349386.84375
2296,3.22,1637349386.859375
2297,-0.14,1637349386.875
2298,-3.16,1637349386.890625
2299,-6.26,1637349386.90625
2300,-9.86,1637349386.921875
2301,-14.22,1637349386.9375
2302,-19.17,1637349386.953125
2303,-24.21,1637349386.96875
2304,-28.71,1637349386.984375
2305,-32.22,1637349387.0
2306,-34.66,1637349387.015625
2307,-36.33,1637349387.03125
2308,-37.83,1637349387.046875
2309,-39.89,1637349387.0625
2310,-43.17,1637349387.078125
2311,-48.01,1637349387.09375
2312,-54.2,1637349387.109375
2313,-60.84,1637349387.125
2314,-66.27,1637349387.140625
2315,-68.52,1637349387.15625
2316,-65.83,1637349387.171875
2317,-57.35,1637349387.1875
2318,-43.56,1637349387.203125
2319,-26.23,1637349387.21875
2320,-7.92,1637349387.234375
2321,8.86,1637349387.25
2322,22.27,1637349387.265625
2323,31.5,1637349387.28125
2324,36.75,1637349387.296875
2325,38.74,1637349387.3125
2326,38.4,1637349387.328125
2327,36.61,1637349387.34375
2328,34.15,1637349387.359375
2329,31.68,1637349387.375
2330,29.72,1637349387.390625
2331,28.56,1637349387.40625
2332,28.23,1637349387.421875
2333,28.45,1637349387.4375
2334,28.89,1637349387.453125
2335,29.23,1637349387.46875
2336,29.36,1637349387.484375
2337,29.28,1637349387.5
2338,29.03,1637349387.515625
2339,28.67,1637349387.53125
2340,28.18,1637349387.546875
2341,27.6,1637349387.5625
2342,27.02,1637349387.578125
2343,26.57,1637349387.59375
2344,26.27,1637349387.609375
2345,25.99,1637349387.625
2346,25.44,1637349387.640625
2347,24.28,1637349387.65625
2348,22.34,1637349387.671875
2349,19.63,1637349387.6875
2350,16.43,1637349387.703125
2351,13.11,1637349387.71875
2352,9.96,1637349387.734375
2353,7.08,1637349387.75
2354,4.37,1637349387.765625
2355,1.61,1637349387.78125
2356,-1.51,1637349387.796875
2357,-5.18,1637349387.8125
2358,-9.46,1637349387.828125
2359,-14.17,1637349387.84375
2360,-18.95,1637349387.859375
2361,-23.36,1637349387.875
2362,-27.06,1637349387.890625
2363,-29.92,1637349387.90625
2364,-32.09,1637349387.921875
2365,-33.94,1637349387.9375
2366,-36.0,1637349387.953125
2367,-38.83,1637349387.96875
2368,-42.83,1637349387.984375
2369,-48.14,1637349388.0
2370,-54.36,1637349388.015625
2371,-60.5,1637349388.03125
2372,-65.01,1637349388.046875
2373,-66.16,1637349388.0625
2374,-62.49,1637349388.078125
2375,-53.4,1637349388.09375
2376,-39.53,1637349388.109375
2377,-22.59,1637349388.125
2378,-4.93,1637349388.140625
2379,11.22,1637349388.15625
2380,24.26,1637349388.171875
2381,33.47,1637349388.1875
2382,38.95,1637349388.203125
2383,41.26,1637349388.21875
2384,41.13,1637349388.234375
2385,39.21,1637349388.25
2386,36.14,1637349388.265625
2387,32.52,1637349388.28125
2388,29.01,1637349388.296875
2389,26.19,1637349388.3125
2390,24.46,1637349388.328125
2391,23.9,1637349388.34375
2392,24.2,1637349388.359375
2393,24.88,1637349388.375
2394,25.44,1637349388.390625
2395,25.64,1637349388.40625
2396,25.57,1637349388.421875
2397,25.56,1637349388.4375
2398,25.97,1637349388.453125
2399,26.98,1637349388.46875
2400,28.41,1637349388.484375
2401,29.77,1637349388.5
2402,30.41,1637349388.515625
2403,29.75,1637349388.53125
2404,27.56,1637349388.546875
2405,23.98,1637349388.5625
2406,19.54,1637349388.578125
2407,14.93,1637349388.59375
2408,10.74,1637349388.609375
2409,7.28,1637349388.625
2410,4.38,1637349388.640625
2411,1.6,1637349388.65625
2412,-1.66,1637349388.671875
2413,-5.79,1637349388.6875
2414,-10.81,1637349388.703125
2415,-16.37,1637349388.71875
2416,-21.88,1637349388.734375
2417,-26.76,1637349388.75
2418,-30.68,1637349388.765625
2419,-33.7,1637349388.78125
2420,-36.15,1637349388.796875
2421,-38.64,1637349388.8125
2422,-41.83,1637349388.828125
2423,-46.29,1637349388.84375
2424,-52.28,1637349388.859375
2425,-59.41,1637349388.875
2426,-66.48,1637349388.890625
2427,-71.55,1637349388.90625
2428,-72.45,1637349388.921875
2429,-67.48,1637349388.9375
2430,-56.18,1637349388.953125
2431,-39.62,1637349388.96875
2432,-20.14,1637349388.984375
2433,-0.65,1637349389.0
2434,16.26,1637349389.015625
2435,28.92,1637349389.03125
2436,36.86,1637349389.046875
2437,40.57,1637349389.0625
2438,41.08,1637349389.078125
2439,39.57,1637349389.09375
2440,37.17,1637349389.109375
2441,34.72,1637349389.125
2442,32.76,1637349389.140625
2443,31.53,1637349389.15625
2444,30.93,1637349389.171875
2445,30.72,1637349389.1875
2446,30.64,1637349389.203125
2447,30.48,1637349389.21875
2448,30.16,1637349389.234375
2449,29.66,1637349389.25
2450,29.0,1637349389.265625
2451,28.22,1637349389.28125
2452,27.4,1637349389.296875
2453,26.63,1637349389.3125
2454,26.05,1637349389.328125
2455,25.67,1637349389.34375
2456,25.43,1637349389.359375
2457,25.16,1637349389.375
2458,24.57,1637349389.390625
2459,23.39,1637349389.40625
2460,21.47,1637349389.421875
2461,18.83,1637349389.4375
2462,15.62,1637349389.453125
2463,12.09,1637349389.46875
2464,8.48,1637349389.484375
2465,4.99,1637349389.5
2466,1.72,1637349389.515625
2467,-1.31,1637349389.53125
2468,-4.16,1637349389.546875
2469,-7.03,1637349389.5625
2470,-10.17,1637349389.578125
2471,-13.8,1637349389.59375
2472,-17.95,1637349389.609375
2473,-22.43,1637349389.625
2474,-26.83,1637349389.640625
2475,-30.64,1637349389.65625
2476,-33.52,1637349389.671875
2477,-35.43,1637349389.6875
2478,-36.72,1637349389.703125
2479,-38.03,1637349389.71875
2480,-40.11,1637349389.734375
2481,-43.6,1637349389.75
2482,-48.88,1637349389.765625
2483,-55.77,1637349389.78125
2484,-63.39,1637349389.796875
2485,-70.11,1637349389.8125
2486,-73.82,1637349389.828125
2487,-72.47,1637349389.84375
2488,-64.86,1637349389.859375
2489,-51.16,1637349389.875
2490,-33.02,1637349389.890625
2491,-13.16,1637349389.90625
2492,5.5,1637349389.921875
2493,20.71,1637349389.9375
2494,31.38,1637349389.953125
2495,37.55,1637349389.96875
2496,40.03,1637349389.984375
2497,39.85,1637349390.0
2498,37.92,1637349390.015625
2499,34.95,1637349390.03125
2500,31.54,1637349390.046875
2501,28.26,1637349390.0625
2502,25.62,1637349390.078125
2503,23.95,1637349390.09375
2504,23.28,1637349390.109375
2505,23.35,1637349390.125
2506,23.75,1637349390.140625
2507,24.15,1637349390.15625
2508,24.48,1637349390.171875
2509,24.88,1637349390.1875
2510,25.6,1637349390.203125
2511,26.73,1637349390.21875
2512,28.16,1637349390.234375
2513,29.55,1637349390.25
2514,30.57,1637349390.265625
2515,30.96,1637349390.28125
2516,30.67,1637349390.296875
2517,29.78,1637349390.3125
2518,28.36,1637349390.328125
2519,26.41,1637349390.34375
2520,23.91,1637349390.359375
2521,20.82,1637349390.375
2522,17.25,1637349390.390625
2523,13.44,1637349390.40625
2524,9.69,1637349390.421875
2525,6.24,1637349390.4375
2526,3.19,1637349390.453125
2527,0.46,1637349390.46875
2528,-2.15,1637349390.484375
2529,-4.86,1637349390.5
2530,-7.81,1637349390.515625
2531,-11.07,1637349390.53125
2532,-14.54,1637349390.546875
2533,-18.06,1637349390.5625
2534,-21.42,1637349390.578125
2535,-24.45,1637349390.59375
2536,-27.05,1637349390.609375
2537,-29.26,1637349390.625
2538,-31.28,1637349390.640625
2539,-33.48,1637349390.65625
2540,-36.44,1637349390.671875
2541,-40.76,1637349390.6875
2542,-46.81,1637349390.703125
2543,-54.41,1637349390.71875
2544,-62.51,1637349390.734375
2545,-69.27,1637349390.75
2546,-72.44,1637349390.765625
2547,-70.06,1637349390.78125
2548,-61.25,1637349390.796875
2549,-46.63,1637349390.8125
2550,-28.22,1637349390.828125
2551,-8.84,1637349390.84375
2552,8.81,1637349390.859375
2553,22.82,1637349390.875
2554,32.44,1637349390.890625
2555,37.93,1637349390.90625
2556,40.08,1637349390.921875
2557,39.8,1637349390.9375
2558,37.91,1637349390.953125
2559,35.09,1637349390.96875
2560,32.0,1637349390.984375
2561,29.29,1637349391.0
2562,27.46,1637349391.015625
2563,26.66,1637349391.03125
2564,26.71,1637349391.046875
2565,27.08,1637349391.0625
2566,27.25,1637349391.078125
2567,26.93,1637349391.09375
2568,26.19,1637349391.109375
2569,25.44,1637349391.125
2570,25.22,1637349391.140625
2571,25.84,1637349391.15625
2572,27.36,1637349391.171875
2573,29.43,1637349391.1875
2574,31.44,1637349391.203125
2575,32.72,1637349391.21875
2576,32.69,1637349391.234375
2577,31.05,1637349391.25
2578,27.84,1637349391.265625
2579,23.48,1637349391.28125
2580,18.59,1637349391.296875
2581,13.8,1637349391.3125
2582,9.56,1637349391.328125
2583,5.98,1637349391.34375
2584,2.78,1637349391.359375
2585,-0.58,1637349391.375
2586,-4.63,1637349391.390625
2587,-9.62,1637349391.40625
2588,-15.4,1637349391.421875
2589,-21.46,1637349391.4375
2590,-27.08,1637349391.453125
2591,-31.67,1637349391.46875
2592,-34.97,1637349391.484375
2593,-37.13,1637349391.5
2594,-38.74,1637349391.515625
2595,-40.64,1637349391.53125
2596,-43.71,1637349391.546875
2597,-48.56,1637349391.5625
2598,-55.2,1637349391.578125
2599,-62.77,1637349391.59375
2600,-69.54,1637349391.609375
2601,-73.27,1637349391.625
2602,-71.9,1637349391.640625
2603,-64.29,1637349391.65625
2604,-50.77,1637349391.671875
2605,-33.08,1637349391.6875
2606,-13.86,1637349391.703125
2607,4.22,1637349391.71875
2608,19.12,1637349391.734375
2609,29.87,1637349391.75
2610,36.48,1637349391.765625
2611,39.57,1637349391.78125
2612,39.99,1637349391.796875
2613,38.61,1637349391.8125
2614,36.18,1637349391.828125
2615,33.33,1637349391.84375
2616,30.63,1637349391.859375
2617,28.41,1637349391.875
2618,26.84,1637349391.890625
2619,25.91,1637349391.90625
2620,25.5,1637349391.921875
2621,25.47,1637349391.9375
2622,25.7,1637349391.953125
2623,26.17,1637349391.96875
2624,26.87,1637349391.984375
2625,27.76,1637349392.0
2626,28.79,1637349392.015625
2627,29.84,1637349392.03125
2628,30.81,1637349392.046875
2629,31.56,1637349392.0625
2630,31.95,1637349392.078125
2631,31.83,1637349392.09375
2632,31.03,1637349392.109375
2633,29.37,1637349392.125
2634,26.79,1637349392.140625
2635,23.34,1637349392.15625
2636,19.25,1637349392.171875
2637,14.79,1637349392.1875
2638,10.23,1637349392.203125
2639,5.78,1637349392.21875
2640,1.49,1637349392.234375
2641,-2.63,1637349392.25
2642,-6.65,1637349392.265625
2643,-10.62,1637349392.28125
2644,-14.62,1637349392.296875
2645,-18.68,1637349392.3125
2646,-22.75,1637349392.328125
2647,-26.67,1637349392.34375
2648,-30.22,1637349392.359375
2649,-33.15,1637349392.375
2650,-35.33,1637349392.390625
2651,-36.88,1637349392.40625
2652,-38.16,1637349392.421875
2653,-39.78,1637349392.4375
2654,-42.39,1637349392.453125
2655,-46.55,1637349392.46875
2656,-52.41,1637349392.484375
2657,-59.51,1637349392.5
2658,-66.65,1637349392.515625
2659,-71.99,1637349392.53125
2660,-73.43,1637349392.546875
2661,-69.35,1637349392.5625
2662,-59.17,1637349392.578125
2663,-43.72,1637349392.59375
2664,-25.06,1637349392.609375
2665,-5.83,1637349392.625
2666,11.47,1637349392.640625
2667,25.15,1637349392.65625
2668,34.51,1637349392.671875
2669,39.74,1637349392.6875
2670,41.55,1637349392.703125
2671,40.85,1637349392.71875
2672,38.62,1637349392.734375
2673,35.74,1637349392.75
2674,32.99,1637349392.765625
2675,30.89,1637349392.78125
2676,29.72,1637349392.796875
2677,29.4,1637349392.8125
2678,29.62,1637349392.828125
2679,30.05,1637349392.84375
2680,30.37,1637349392.859375
2681,30.47,1637349392.875
2682,30.41,1637349392.890625
2683,30.37,1637349392.90625
2684,30.53,1637349392.921875
2685,31.04,1637349392.9375
2686,31.87,1637349392.953125
2687,32.84,1637349392.96875
2688,33.67,1637349392.984375
2689,34.01,1637349393.0
2690,33.66,1637349393.015625
2691,32.53,1637349393.03125
2692,30.69,1637349393.046875
2693,28.23,1637349393.0625
2694,25.19,1637349393.078125
2695,21.47,1637349393.09375
2696,16.94,1637349393.109375
2697,11.48,1637349393.125
2698,5.21,1637349393.140625
2699,-1.55,1637349393.15625
2700,-8.35,1637349393.171875
2701,-14.74,1637349393.1875
2702,-20.47,1637349393.203125
2703,-25.46,1637349393.21875
2704,-29.8,1637349393.234375
2705,-33.53,1637349393.25
2706,-36.65,1637349393.265625
2707,-39.06,1637349393.28125
2708,-40.68,1637349393.296875
2709,-41.56,1637349393.3125
2710,-41.89,1637349393.328125
2711,-42.09,1637349393.34375
2712,-42.72,1637349393.359375
2713,-44.42,1637349393.375
2714,-47.77,1637349393.390625
2715,-53.06,1637349393.40625
2716,-59.95,1637349393.421875
2717,-67.28,1637349393.4375
2718,-73.08,1637349393.453125
2719,-75.05,1637349393.46875
2720,-71.31,1637349393.484375
2721,-61.13,1637349393.5
2722,-45.31,1637349393.515625
2723,-25.99,1637349393.53125
2724,-5.96,1637349393.546875
2725,12.15,1637349393.5625
2726,26.59,1637349393.578125
2727,36.68,1637349393.59375
2728,42.68,1637349393.609375
2729,45.31,1637349393.625
2730,45.41,1637349393.640625
2731,43.79,1637349393.65625
2732,41.14,1637349393.671875
2733,38.07,1637349393.6875
2734,35.12,1637349393.703125
2735,32.68,1637349393.71875
2736,30.93,1637349393.734375
2737,29.85,1637349393.75
2738,29.28,1637349393.765625
2739,29.03,1637349393.78125
2740,28.94,1637349393.796875
2741,28.94,1637349393.8125
2742,29.09,1637349393.828125
2743,29.49,1637349393.84375
2744,30.23,1637349393.859375
2745,31.36,1637349393.875
2746,32.75,1637349393.890625
2747,34.1,1637349393.90625
2748,34.97,1637349393.921875
2749,34.88,1637349393.9375
2750,33.48,1637349393.953125
2751,30.66,1637349393.96875
2752,26.65,1637349393.984375
2753,21.94,1637349394.0
2754,17.13,1637349394.015625
2755,12.68,1637349394.03125
2756,8.84,1637349394.046875
2757,5.5,1637349394.0625
2758,2.32,1637349394.078125
2759,-1.12,1637349394.09375
2760,-5.15,1637349394.109375
2761,-9.87,1637349394.125
2762,-15.1,1637349394.140625
2763,-20.47,1637349394.15625
2764,-25.5,1637349394.171875
2765,-29.81,1637349394.1875
2766,-33.22,1637349394.203125
2767,-35.81,1637349394.21875
2768,-37.97,1637349394.234375
2769,-40.28,1637349394.25
2770,-43.44,1637349394.265625
2771,-48.03,1637349394.28125
2772,-54.19,1637349394.296875
2773,-61.35,1637349394.3125
2774,-68.05,1637349394.328125
2775,-72.18,1637349394.34375
2776,-71.57,1637349394.359375
2777,-64.8,1637349394.375
2778,-51.84,1637349394.390625
2779,-34.17,1637349394.40625
2780,-14.41,1637349394.421875
2781,4.54,1637349394.4375
2782,20.37,1637349394.453125
2783,31.84,1637349394.46875
2784,38.85,1637349394.484375
2785,42.05,1637349394.5
2786,42.46,1637349394.515625
2787,41.11,1637349394.53125
2788,38.89,1637349394.546875
2789,36.5,1637349394.5625
2790,34.48,1637349394.578125
2791,33.14,1637349394.59375
2792,32.55,1637349394.609375
2793,32.53,1637349394.625
2794,32.75,1637349394.640625
2795,32.88,1637349394.65625
2796,32.75,1637349394.671875
2797,32.41,1637349394.6875
2798,32.08,1637349394.703125
2799,32.09,1637349394.71875
2800,32.64,1637349394.734375
2801,33.73,1637349394.75
2802,35.11,1637349394.765625
2803,36.33,1637349394.78125
2804,36.98,1637349394.796875
2805,36.77,1637349394.8125
2806,35.72,1637349394.828125
2807,34.05,1637349394.84375
2808,32.08,1637349394.859375
2809,30.03,1637349394.875
2810,27.88,1637349394.890625
2811,25.43,1637349394.90625
2812,22.44,1637349394.921875
2813,18.79,1637349394.9375
2814,14.62,1637349394.953125
2815,10.3,1637349394.96875
2816,6.32,1637349394.984375
2817,3.04,1637349395.0
2818,0.48,1637349395.015625
2819,-1.69,1637349395.03125
2820,-4.02,1637349395.046875
2821,-7.05,1637349395.0625
2822,-11.06,1637349395.078125
2823,-15.99,1637349395.09375
2824,-21.42,1637349395.109375
2825,-26.77,1637349395.125
2826,-31.55,1637349395.140625
2827,-35.5,1637349395.15625
2828,-38.67,1637349395.171875
2829,-41.43,1637349395.1875
2830,-44.31,1637349395.203125
2831,-48.0,1637349395.21875
2832,-53.05,1637349395.234375
2833,-59.65,1637349395.25
2834,-67.29,1637349395.265625
2835,-74.54,1637349395.28125
2836,-79.29,1637349395.296875
2837,-79.2,1637349395.3125
2838,-72.6,1637349395.328125
2839,-59.19,1637349395.34375
2840,-40.38,1637349395.359375
2841,-18.9,1637349395.375
2842,2.03,1637349395.390625
2843,19.68,1637349395.40625
2844,32.53,1637349395.421875
2845,40.36,1637349395.4375
2846,43.96,1637349395.453125
2847,44.51,1637349395.46875
2848,43.19,1637349395.484375
2849,40.91,1637349395.5
2850,38.29,1637349395.515625
2851,35.8,1637349395.53125
2852,33.79,1637349395.546875
2853,32.41,1637349395.5625
2854,31.64,1637349395.578125
2855,31.24,1637349395.59375
2856,30.93,1637349395.609375
2857,30.46,1637349395.625
2858,29.75,1637349395.640625
2859,28.95,1637349395.65625
2860,28.28,1637349395.671875
2861,27.89,1637349395.6875
2862,27.83,1637349395.703125
2863,27.91,1637349395.71875
2864,27.87,1637349395.734375
2865,27.43,1637349395.75
2866,26.39,1637349395.765625
2867,24.73,1637349395.78125
2868,22.47,1637349395.796875
2869,19.66,1637349395.8125
2870,16.37,1637349395.828125
2871,12.68,1637349395.84375
2872,8.69,1637349395.859375
2873,4.54,1637349395.875
2874,0.43,1637349395.890625
2875,-3.46,1637349395.90625
2876,-6.97,1637349395.921875
2877,-10.01,1637349395.9375
2878,-12.62,1637349395.953125
2879,-14.98,1637349395.96875
2880,-17.39,1637349395.984375
2881,-20.15,1637349396.0
2882,-23.46,1637349396.015625
2883,-27.24,1637349396.03125
2884,-31.18,1637349396.046875
2885,-34.73,1637349396.0625
2886,-37.46,1637349396.078125
2887,-39.21,1637349396.09375
2888,-40.31,1637349396.109375
2889,-41.5,1637349396.125
2890,-43.76,1637349396.140625
2891,-47.88,1637349396.15625
2892,-54.2,1637349396.171875
2893,-62.18,1637349396.1875
2894,-70.37,1637349396.203125
2895,-76.59,1637349396.21875
2896,-78.47,1637349396.234375
2897,-74.15,1637349396.25
2898,-63.05,1637349396.265625
2899,-46.12,1637349396.28125
2900,-25.61,1637349396.296875
2901,-4.49,1637349396.3125
2902,14.49,1637349396.328125
2903,29.47,1637349396.34375
2904,39.72,1637349396.359375
2905,45.48,1637349396.375
2906,47.52,1637349396.390625
2907,46.73,1637349396.40625
2908,43.95,1637349396.421875
2909,40.01,1637349396.4375
2910,35.68,1637349396.453125
2911,31.69,1637349396.46875
2912,28.54,1637349396.484375
2913,26.37,1637349396.5
2914,25.01,1637349396.515625
2915,24.03,1637349396.53125
2916,23.07,1637349396.546875
2917,21.99,1637349396.5625
2918,20.95,1637349396.578125
2919,20.3,1637349396.59375
2920,20.38,1637349396.609375
2921,21.28,1637349396.625
2922,22.75,1637349396.640625
2923,24.27,1637349396.65625
2924,25.2,1637349396.671875
2925,25.0,1637349396.6875
2926,23.47,1637349396.703125
2927,20.79,1637349396.71875
2928,17.4,1637349396.734375
2929,13.79,1637349396.75
2930,10.23,1637349396.765625
2931,6.61,1637349396.78125
2932,2.58,1637349396.796875
2933,-2.19,1637349396.8125
2934,-7.8,1637349396.828125
2935,-13.97,1637349396.84375
2936,-20.13,1637349396.859375
2937,-25.64,1637349396.875
2938,-30.07,1637349396.890625
2939,-33.37,1637349396.90625
2940,-35.9,1637349396.921875
2941,-38.34,1637349396.9375
2942,-41.53,1637349396.953125
2943,-46.25,1637349396.96875
2944,-52.96,1637349396.984375
2945,-61.38,1637349397.0
2946,-70.28,1637349397.015625
2947,-77.47,1637349397.03125
2948,-80.37,1637349397.046875
2949,-76.83,1637349397.0625
2950,-65.99,1637349397.078125
2951,-48.79,1637349397.09375
2952,-27.73,1637349397.109375
2953,-6.1,1637349397.125
2954,13.07,1637349397.140625
2955,27.83,1637349397.15625
2956,37.6,1637349397.171875
2957,42.91,1637349397.1875
2958,44.75,1637349397.203125
2959,44.18,1637349397.21875
2960,42.08,1637349397.234375
2961,39.16,1637349397.25
2962,36.06,1637349397.265625
2963,33.34,1637349397.28125
2964,31.32,1637349397.296875
2965,30.03,1637349397.3125
2966,29.13,1637349397.328125
2967,28.15,1637349397.34375
2968,26.72,1637349397.359375
2969,24.74,1637349397.375
2970,22.43,1637349397.390625
2971,20.21,1637349397.40625
2972,18.55,1637349397.421875
2973,17.73,1637349397.4375
2974,17.8,1637349397.453125
2975,18.49,1637349397.46875
2976,19.33,1637349397.484375
2977,19.72,1637349397.5
2978,19.1,1637349397.515625
2979,17.16,1637349397.53125
2980,13.97,1637349397.546875
2981,9.92,1637349397.5625
2982,5.62,1637349397.578125
2983,1.54,1637349397.59375
2984,-2.18,1637349397.609375
2985,-5.78,1637349397.625
2986,-9.7,1637349397.640625
2987,-14.36,1637349397.65625
2988,-19.82,1637349397.671875
2989,-25.76,1637349397.6875
2990,-31.59,1637349397.703125
2991,-36.72,1637349397.71875
2992,-40.76,1637349397.734375
2993,-43.68,1637349397.75
2994,-45.86,1637349397.765625
2995,-47.89,1637349397.78125
2996,-50.6,1637349397.796875
2997,-54.76,1637349397.8125
2998,-60.94,1637349397.828125
2999,-69.09,1637349397.84375
3000,-78.3,1637349397.859375
3001,-86.62,1637349397.875
3002,-91.45,1637349397.890625
3003,-90.27,1637349397.90625
3004,-81.54,1637349397.921875
3005,-65.37,1637349397.9375
3006,-43.72,1637349397.953125
3007,-19.8,1637349397.96875
3008,2.87,1637349397.984375
3009,21.55,1637349398.0
3010,34.79,1637349398.015625
3011,42.58,1637349398.03125
3012,45.83,1637349398.046875
3013,45.9,1637349398.0625
3014,44.06,1637349398.078125
3015,41.36,1637349398.09375
3016,38.6,1637349398.109375
3017,36.37,1637349398.125
3018,34.99,1637349398.140625
3019,34.51,1637349398.15625
3020,34.61,1637349398.171875
3021,34.76,1637349398.1875
3022,34.41,1637349398.203125
3023,33.21,1637349398.21875
3024,31.13,1637349398.234375
3025,28.45,1637349398.25
3026,25.62,1637349398.265625
3027,23.1,1637349398.28125
3028,21.24,1637349398.296875
3029,20.21,1637349398.3125
3030,19.98,1637349398.328125
3031,20.34,1637349398.34375
3032,20.87,1637349398.359375
3033,21.02,1637349398.375
3034,20.23,1637349398.390625
3035,18.09,1637349398.40625
3036,14.51,1637349398.421875
3037,9.78,1637349398.4375
3038,4.5,1637349398.453125
3039,-0.62,1637349398.46875
3040,-5.01,1637349398.484375
3041,-8.42,1637349398.5
3042,-11.01,1637349398.515625
3043,-13.2,1637349398.53125
3044,-15.52,1637349398.546875
3045,-18.38,1637349398.5625
3046,-21.86,1637349398.578125
3047,-25.74,1637349398.59375
3048,-29.61,1637349398.609375
3049,-33.02,1637349398.625
3050,-35.73,1637349398.640625
3051,-37.84,1637349398.65625
3052,-39.77,1637349398.671875
3053,-42.26,1637349398.6875
3054,-46.1,1637349398.703125
3055,-51.96,1637349398.71875
3056,-59.94,1637349398.734375
3057,-69.23,1637349398.75
3058,-78.04,1637349398.765625
3059,-83.77,1637349398.78125
3060,-83.78,1637349398.796875
3061,-76.22,1637349398.8125
3062,-60.85,1637349398.828125
3063,-39.23,1637349398.84375
3064,-14.36,1637349398.859375
3065,10.2,1637349398.875
3066,31.37,1637349398.890625
3067,47.15,1637349398.90625
3068,56.93,1637349398.921875
3069,61.21,1637349398.9375
3070,61.1,1637349398.953125
3071,58.01,1637349398.96875
3072,53.29,1637349398.984375
3073,48.13,1637349399.0
3074,43.4,1637349399.015625
3075,39.67,1637349399.03125
3076,37.09,1637349399.046875
3077,35.48,1637349399.0625
3078,34.45,1637349399.078125
3079,33.59,1637349399.09375
3080,32.61,1637349399.109375
3081,31.56,1637349399.125
3082,30.72,1637349399.140625
3083,30.47,1637349399.15625
3084,31.09,1637349399.171875
3085,32.55,1637349399.1875
3086,34.42,1637349399.203125
3087,35.99,1637349399.21875
3088,36.45,1637349399.234375
3089,35.26,1637349399.25
3090,32.32,1637349399.265625
3091,28.05,1637349399.28125
3092,23.14,1637349399.296875
3093,18.28,1637349399.3125
3094,13.78,1637349399.328125
3095,9.48,1637349399.34375
3096,4.9,1637349399.359375
3097,-0.41,1637349399.375
3098,-6.61,1637349399.390625
3099,-13.36,1637349399.40625
3100,-19.99,1637349399.421875
3101,-25.76,1637349399.4375
3102,-30.19,1637349399.453125
3103,-33.28,1637349399.46875
3104,-35.5,1637349399.484375
3105,-37.66,1637349399.5
3106,-40.7,1637349399.515625
3107,-45.42,1637349399.53125
3108,-52.2,1637349399.546875
3109,-60.68,1637349399.5625
3110,-69.51,1637349399.578125
3111,-76.48,1637349399.59375
3112,-79.06,1637349399.609375
3113,-75.15,1637349399.625
3114,-63.91,1637349399.640625
3115,-46.2,1637349399.65625
3116,-24.47,1637349399.671875
3117,-1.98,1637349399.6875
3118,18.17,1637349399.703125
3119,33.83,1637349399.71875
3120,44.15,1637349399.734375
3121,49.46,1637349399.75
3122,50.82,1637349399.765625
3123,49.48,1637349399.78125
3124,46.58,1637349399.796875
3125,42.99,1637349399.8125
3126,39.34,1637349399.828125
3127,36.07,1637349399.84375
3128,33.44,1637349399.859375
3129,31.53,1637349399.875
3130,30.27,1637349399.890625
3131,29.46,1637349399.90625
3132,28.85,1637349399.921875
3133,28.26,1637349399.9375
3134,27.74,1637349399.953125
3135,27.48,1637349399.96875
3136,27.77,1637349399.984375
3137,28.78,1637349400.0
3138,30.44,1637349400.015625
3139,32.28,1637349400.03125
3140,33.59,1637349400.046875
3141,33.59,1637349400.0625
3142,31.77,1637349400.078125
3143,28.08,1637349400.09375
3144,22.96,1637349400.109375
3145,17.17,1637349400.125
3146,11.51,1637349400.140625
3147,6.52,1637349400.15625
3148,2.23,1637349400.171875
3149,-1.74,1637349400.1875
3150,-6.04,1637349400.203125
3151,-11.23,1637349400.21875
3152,-17.52,1637349400.234375
3153,-24.7,1637349400.25
3154,-32.14,1637349400.265625
3155,-39.07,1637349400.28125
3156,-44.87,1637349400.296875
3157,-49.3,1637349400.3125
3158,-52.64,1637349400.328125
3159,-55.69,1637349400.34375
3160,-59.57,1637349400.359375
3161,-65.24,1637349400.375
3162,-73.05,1637349400.390625
3163,-82.23,1637349400.40625
3164,-90.81,1637349400.421875
3165,-95.97,1637349400.4375
3166,-94.95,1637349400.453125
3167,-85.9,1637349400.46875
3168,-68.7,1637349400.484375
3169,-45.09,1637349400.5
3170,-18.19,1637349400.515625
3171,8.4,1637349400.53125
3172,31.54,1637349400.546875
3173,49.14,1637349400.5625
3174,60.42,1637349400.578125
3175,65.7,1637349400.59375
3176,66.09,1637349400.609375
3177,63.12,1637349400.625
3178,58.43,1637349400.640625
3179,53.48,1637349400.65625
3180,49.32,1637349400.671875
3181,46.48,1637349400.6875
3182,44.94,1637349400.703125
3183,44.3,1637349400.71875
3184,43.98,1637349400.734375
3185,43.49,1637349400.75
3186,42.6,1637349400.765625
3187,41.35,1637349400.78125
3188,40.05,1637349400.796875
3189,39.06,1637349400.8125
3190,38.7,1637349400.828125
3191,39.05,1637349400.84375
3192,39.95,1637349400.859375
3193,40.96,1637349400.875
3194,41.51,1637349400.890625
3195,40.98,1637349400.90625
3196,38.95,1637349400.921875
3197,35.14,1637349400.9375
3198,29.63,1637349400.953125
3199,22.81,1637349400.96875
3200,15.28,1637349400.984375
3201,7.75,1637349401.0
3202,0.8,1637349401.015625
3203,-5.25,1637349401.03125
3204,-10.49,1637349401.046875
3205,-15.39,1637349401.0625
3206,-20.55,1637349401.078125
3207,-26.41,1637349401.09375
3208,-33.07,1637349401.109375
3209,-40.11,1637349401.125
3210,-46.83,1637349401.140625
3211,-52.52,1637349401.15625
3212,-56.75,1637349401.171875
3213,-59.67,1637349401.1875
3214,-61.93,1637349401.203125
3215,-64.64,1637349401.21875
3216,-69.01,1637349401.234375
3217,-75.87,1637349401.25
3218,-85.16,1637349401.265625
3219,-95.7,1637349401.28125
3220,-105.07,1637349401.296875
3221,-110.16,1637349401.3125
3222,-107.97,1637349401.328125
3223,-96.61,1637349401.34375
3224,-75.94,1637349401.359375
3225,-47.79,1637349401.375
3226,-15.65,1637349401.390625
3227,16.31,1637349401.40625
3228,44.17,1637349401.421875
3229,65.14,1637349401.4375
3230,77.98,1637349401.453125
3231,83.02,1637349401.46875
3232,81.86,1637349401.484375
3233,76.73,1637349401.5
3234,69.95,1637349401.515625
3235,63.37,1637349401.53125
3236,58.13,1637349401.546875
3237,54.6,1637349401.5625
3238,52.56,1637349401.578125
3239,51.53,1637349401.59375
3240,50.97,1637349401.609375
3241,50.47,1637349401.625
3242,49.9,1637349401.640625
3243,49.5,1637349401.65625
3244,49.78,1637349401.671875
3245,51.36,1637349401.6875
3246,54.56,1637349401.703125
3247,59.07,1637349401.71875
3248,63.79,1637349401.734375
3249,67.09,1637349401.75
3250,67.31,1637349401.765625
3251,63.52,1637349401.78125
3252,55.86,1637349401.796875
3253,45.57,1637349401.8125
3254,34.4,1637349401.828125
3255,23.86,1637349401.84375
3256,14.62,1637349401.859375
3257,6.36,1637349401.875
3258,-1.89,1637349401.890625
3259,-11.1,1637349401.90625
3260,-21.68,1637349401.921875
3261,-33.13,1637349401.9375
3262,-44.25,1637349401.953125
3263,-53.64,1637349401.96875
3264,-60.3,1637349401.984375
3265,-64.13,1637349402.0
3266,-66.06,1637349402.015625
3267,-67.76,1637349402.03125
3268,-71.03,1637349402.046875
3269,-77.37,1637349402.0625
3270,-87.23,1637349402.078125
3271,-99.76,1637349402.09375
3272,-112.66,1637349402.109375
3273,-122.31,1637349402.125
3274,-124.39,1637349402.140625
3275,-114.95,1637349402.15625
3276,-92.03,1637349402.171875
3277,-56.92,1637349402.1875
3278,-14.67,1637349402.203125
3279,27.19,1637349402.21875
3280,60.93,1637349402.234375
3281,81.45,1637349402.25
3282,87.92,1637349402.265625
3283,83.53,1637349402.28125
3284,73.6,1637349402.296875
3285,63.07,1637349402.3125
3286,54.75,1637349402.328125
3287,48.96,1637349402.34375
3288,44.71,1637349402.359375
3289,41.0,1637349402.375
3290,37.69,1637349402.390625
3291,35.44,1637349402.40625
3292,34.78,1637349402.421875
3293,35.53,1637349402.4375
3294,36.69,1637349402.453125
3295,37.01,1637349402.46875
3296,35.75,1637349402.484375
3297,33.16,1637349402.5
3298,30.33,1637349402.515625
3299,28.57,1637349402.53125
3300,28.97,1637349402.546875
3301,31.58,1637349402.5625
3302,35.44,1637349402.578125
3303,38.93,1637349402.59375
3304,40.32,1637349402.609375
3305,38.49,1637349402.625
3306,33.38,1637349402.640625
3307,25.96,1637349402.65625
3308,17.81,1637349402.671875
3309,10.46,1637349402.6875
3310,4.79,1637349402.703125
3311,0.81,1637349402.71875
3312,-2.3,1637349402.734375
3313,-5.72,1637349402.75
3314,-10.48,1637349402.765625
3315,-17.04,1637349402.78125
3316,-25.07,1637349402.796875
3317,-33.64,1637349402.8125
3318,-41.56,1637349402.828125
3319,-47.84,1637349402.84375
3320,-52.02,1637349402.859375
3321,-54.35,1637349402.875
3322,-55.68,1637349402.890625
3323,-57.21,1637349402.90625
3324,-60.18,1637349402.921875
3325,-65.58,1637349402.9375
3326,-73.76,1637349402.953125
3327,-84.07,1637349402.96875
3328,-94.72,1637349402.984375
3329,-102.86,1637349403.0
3330,-105.2,1637349403.015625
3331,-99.03,1637349403.03125
3332,-83.25,1637349403.046875
3333,-59.06,1637349403.0625
3334,-29.73,1637349403.078125
3335,0.35,1637349403.09375
3336,26.96,1637349403.109375
3337,47.18,1637349403.125
3338,59.95,1637349403.140625
3339,65.83,1637349403.15625
3340,66.4,1637349403.171875
3341,63.49,1637349403.1875
3342,58.73,1637349403.203125
3343,53.38,1637349403.21875
3344,48.32,1637349403.234375
3345,44.17,1637349403.25
3346,41.29,1637349403.265625
3347,39.76,1637349403.28125
3348,39.36,1637349403.296875
3349,39.61,1637349403.3125
3350,40.0,1637349403.328125
3351,40.14,1637349403.34375
3352,39.91,1637349403.359375
3353,39.55,1637349403.375
3354,39.45,1637349403.390625
3355,39.94,1637349403.40625
3356,41.07,1637349403.421875
3357,42.46,1637349403.4375
3358,43.49,1637349403.453125
3359,43.54,1637349403.46875
3360,42.24,1637349403.484375
3361,39.62,1637349403.5
3362,36.02,1637349403.515625
3363,31.89,1637349403.53125
3364,27.58,1637349403.546875
3365,23.22,1637349403.5625
3366,18.68,1637349403.578125
3367,13.79,1637349403.59375
3368,8.5,1637349403.609375
3369,2.96,1637349403.625
3370,-2.45,1637349403.640625
3371,-7.34,1637349403.65625
3372,-11.5,1637349403.671875
3373,-14.99,1637349403.6875
3374,-18.18,1637349403.703125
3375,-21.57,1637349403.71875
3376,-25.49,1637349403.734375
3377,-29.99,1637349403.75
3378,-34.79,1637349403.765625
3379,-39.46,1637349403.78125
3380,-43.62,1637349403.796875
3381,-47.11,1637349403.8125
3382,-50.13,1637349403.828125
3383,-53.18,1637349403.84375
3384,-56.98,1637349403.859375
3385,-62.35,1637349403.875
3386,-69.92,1637349403.890625
3387,-79.72,1637349403.90625
3388,-90.74,1637349403.921875
3389,-100.74,1637349403.9375
3390,-106.62,1637349403.953125
3391,-105.21,1637349403.96875
3392,-94.45,1637349403.984375
3393,-74.36,1637349404.0
3394,-47.26,1637349404.015625
3395,-17.23,1637349404.03125
3396,11.23,1637349404.046875
3397,34.42,1637349404.0625
3398,50.43,1637349404.078125
3399,59.18,1637349404.09375
3400,61.92,1637349404.109375
3401,60.49,1637349404.125
3402,56.62,1637349404.140625
3403,51.69,1637349404.15625
3404,46.66,1637349404.171875
3405,42.15,1637349404.1875
3406,38.59,1637349404.203125
3407,36.17,1637349404.21875
3408,34.84,1637349404.234375
3409,34.43,1637349404.25
3410,34.62,1637349404.265625
3411,35.09,1637349404.28125
3412,35.64,1637349404.296875
3413,36.14,1637349404.3125
3414,36.65,1637349404.328125
3415,37.32,1637349404.34375
3416,38.39,1637349404.359375
3417,39.98,1637349404.375
3418,41.95,1637349404.390625
3419,43.82,1637349404.40625
3420,44.8,1637349404.421875
3421,44.11,1637349404.4375
3422,41.27,1637349404.453125
3423,36.33,1637349404.46875
3424,29.92,1637349404.484375
3425,23.04,1637349404.5
3426,16.65,1637349404.515625
3427,11.3,1637349404.53125
3428,7.05,1637349404.546875
3429,3.38,1637349404.5625
3430,-0.46,1637349404.578125
3431,-5.13,1637349404.59375
3432,-10.93,1637349404.609375
3433,-17.66,1637349404.625
3434,-24.69,1637349404.640625
3435,-31.23,1637349404.65625
3436,-36.56,1637349404.671875
3437,-40.36,1637349404.6875
3438,-42.83,1637349404.703125
3439,-44.62,1637349404.71875
3440,-46.69,1637349404.734375
3441,-50.1,1637349404.75
3442,-55.74,1637349404.765625
3443,-63.91,1637349404.78125
3444,-74.0,1637349404.796875
3445,-84.28,1637349404.8125
3446,-91.98,1637349404.828125
3447,-94.0,1637349404.84375
3448,-87.81,1637349404.859375
3449,-72.56,1637349404.875
3450,-49.53,1637349404.890625
3451,-21.97,1637349404.90625
3452,5.88,1637349404.921875
3453,30.12,1637349404.9375
3454,48.15,1637349404.953125
3455,59.21,1637349404.96875
3456,63.97,1637349404.984375
3457,63.99,1637349405.0
3458,60.94,1637349405.015625
3459,56.21,1637349405.03125
3460,50.82,1637349405.046875
3461,45.48,1637349405.0625
3462,40.7,1637349405.078125
3463,36.8,1637349405.09375
3464,33.89,1637349405.109375
3465,31.89,1637349405.125
3466,30.56,1637349405.140625
3467,29.68,1637349405.15625
3468,29.12,1637349405.171875
3469,28.86,1637349405.1875
3470,28.98,1637349405.203125
3471,29.51,1637349405.21875
3472,30.41,1637349405.234375
3473,31.5,1637349405.25
3474,32.51,1637349405.265625
3475,33.15,1637349405.28125
3476,33.08,1637349405.296875
3477,32.04,1637349405.3125
3478,29.82,1637349405.328125
3479,26.37,1637349405.34375
3480,21.79,1637349405.359375
3481,16.37,1637349405.375
3482,10.6,1637349405.390625
3483,4.98,1637349405.40625
3484,-0.07,1637349405.421875
3485,-4.38,1637349405.4375
3486,-8.1,1637349405.453125
3487,-11.59,1637349405.46875
3488,-15.34,1637349405.484375
3489,-19.67,1637349405.5
3490,-24.7,1637349405.515625
3491,-30.19,1637349405.53125
3492,-35.67,1637349405.546875
3493,-40.62,1637349405.5625
3494,-44.61,1637349405.578125
3495,-47.51,1637349405.59375
3496,-49.55,1637349405.609375
3497,-51.24,1637349405.625
3498,-53.31,1637349405.640625
3499,-56.56,1637349405.65625
3500,-61.68,1637349405.671875
3501,-69.04,1637349405.6875
3502,-78.29,1637349405.703125
3503,-88.19,1637349405.71875
3504,-96.49,1637349405.734375
3505,-100.26,1637349405.75
3506,-96.71,1637349405.765625
3507,-84.24,1637349405.78125
3508,-63.19,1637349405.796875
3509,-36.12,1637349405.8125
3510,-7.13,1637349405.828125
3511,19.4,1637349405.84375
3512,40.07,1637349405.859375
3513,53.36,1637349405.875
3514,59.66,1637349405.890625
3515,60.64,1637349405.90625
3516,58.38,1637349405.921875
3517,54.59,1637349405.9375
3518,50.41,1637349405.953125
3519,46.42,1637349405.96875
3520,42.92,1637349405.984375
3521,40.08,1637349406.0
3522,38.05,1637349406.015625
3523,36.78,1637349406.03125
3524,36.09,1637349406.046875
3525,35.68,1637349406.0625
3526,35.2,1637349406.078125
3527,34.49,1637349406.09375
3528,33.54,1637349406.109375
3529,32.61,1637349406.125
3530,31.92,1637349406.140625
3531,31.71,1637349406.15625
3532,31.96,1637349406.171875
3533,32.43,1637349406.1875
3534,32.74,1637349406.203125
3535,32.37,1637349406.21875
3536,30.94,1637349406.234375
3537,28.21,1637349406.25
3538,24.24,1637349406.265625
3539,19.27,1637349406.28125
3540,13.75,1637349406.296875
3541,8.14,1637349406.3125
3542,2.87,1637349406.328125
3543,-1.78,1637349406.34375
3544,-5.72,1637349406.359375
3545,-9.11,1637349406.375
3546,-12.26,1637349406.390625
3547,-15.57,1637349406.40625
3548,-19.38,1637349406.421875
3549,-23.86,1637349406.4375
3550,-28.88,1637349406.453125
3551,-34.04,1637349406.46875
3552,-38.87,1637349406.484375
3553,-42.89,1637349406.5
3554,-45.86,1637349406.515625
3555,-47.89,1637349406.53125
3556,-49.46,1637349406.546875
3557,-51.38,1637349406.5625
3558,-54.62,1637349406.578125
3559,-60.03,1637349406.59375
3560,-67.93,1637349406.609375
3561,-77.55,1637349406.625
3562,-86.94,1637349406.640625
3563,-93.18,1637349406.65625
3564,-93.25,1637349406.671875
3565,-85.07,1637349406.6875
3566,-68.41,1637349406.703125
3567,-45.14,1637349406.71875
3568,-18.68,1637349406.734375
3569,7.04,1637349406.75
3570,28.75,1637349406.765625
3571,44.55,1637349406.78125
3572,54.05,1637349406.796875
3573,58.0,1637349406.8125
3574,57.73,1637349406.828125
3575,54.73,1637349406.84375
3576,50.32,1637349406.859375
3577,45.55,1637349406.875
3578,41.17,1637349406.890625
3579,37.64,1637349406.90625
3580,35.13,1637349406.921875
3581,33.58,1637349406.9375
3582,32.74,1637349406.953125
3583,32.31,1637349406.96875
3584,31.94,1637349406.984375
3585,31.47,1637349407.0
3586,31.0,1637349407.015625
3587,30.86,1637349407.03125
3588,31.63,1637349407.046875
3589,33.73,1637349407.0625
3590,37.14,1637349407.078125
3591,41.28,1637349407.09375
3592,45.07,1637349407.109375
3593,47.33,1637349407.125
3594,47.28,1637349407.140625
3595,44.75,1637349407.15625
3596,40.25,1637349407.171875
3597,34.65,1637349407.1875
3598,28.72,1637349407.203125
3599,22.89,1637349407.21875
3600,17.2,1637349407.234375
3601,11.42,1637349407.25
3602,5.33,1637349407.265625
3603,-1.04,1637349407.28125
3604,-7.4,1637349407.296875
3605,-13.36,1637349407.3125
3606,-18.62,1637349407.328125
3607,-23.09,1637349407.34375
3608,-27.01,1637349407.359375
3609,-30.76,1637349407.375
3610,-34.84,1637349407.390625
3611,-39.79,1637349407.40625
3612,-46.13,1637349407.421875
3613,-54.22,1637349407.4375
3614,-63.97,1637349407.453125
3615,-74.39,1637349407.46875
3616,-83.52,1637349407.484375
3617,-88.69,1637349407.5
3618,-87.25,1637349407.515625
3619,-77.73,1637349407.53125
3620,-60.43,1637349407.546875
3621,-37.64,1637349407.5625
3622,-12.92,1637349407.578125
3623,10.03,1637349407.59375
3624,28.43,1637349407.609375
3625,41.0,1637349407.625
3626,47.86,1637349407.640625
3627,50.09,1637349407.65625
3628,49.07,1637349407.671875
3629,46.16,1637349407.6875
3630,42.46,1637349407.703125
3631,38.83,1637349407.71875
3632,35.77,1637349407.734375
3633,33.43,1637349407.75
3634,31.61,1637349407.765625
3635,29.86,1637349407.78125
3636,27.75,1637349407.796875
3637,25.12,1637349407.8125
3638,22.17,1637349407.828125
3639,19.47,1637349407.84375
3640,17.69,1637349407.859375
3641,17.42,1637349407.875
3642,18.87,1637349407.890625
3643,21.75,1637349407.90625
3644,25.37,1637349407.921875
3645,28.74,1637349407.9375
3646,30.91,1637349407.953125
3647,31.25,1637349407.96875
3648,29.6,1637349407.984375
3649,26.34,1637349408.0
3650,22.13,1637349408.015625
3651,17.63,1637349408.03125
3652,13.13,1637349408.046875
3653,8.45,1637349408.0625
3654,3.08,1637349408.078125
3655,-3.5,1637349408.09375
3656,-11.49,1637349408.109375
3657,-20.6,1637349408.125
3658,-30.13,1637349408.140625
3659,-39.18,1637349408.15625
3660,-47.05,1637349408.171875
3661,-53.4,1637349408.1875
3662,-58.31,1637349408.203125
3663,-62.27,1637349408.21875
3664,-66.02,1637349408.234375
3665,-70.37,1637349408.25
3666,-75.97,1637349408.265625
3667,-82.81,1637349408.28125
3668,-89.95,1637349408.296875
3669,-95.38,1637349408.3125
3670,-96.47,1637349408.328125
3671,-90.84,1637349408.34375
3672,-77.38,1637349408.359375
3673,-56.91,1637349408.375
3674,-32.18,1637349408.390625
3675,-6.93,1637349408.40625
3676,15.26,1637349408.421875
3677,32.01,1637349408.4375
3678,42.54,1637349408.453125
3679,47.4,1637349408.46875
3680,47.81,1637349408.484375
3681,45.11,1637349408.5
3682,40.53,1637349408.515625
3683,35.18,1637349408.53125
3684,30.05,1637349408.546875
3685,26.01,1637349408.5625
3686,23.48,1637349408.578125
3687,22.42,1637349408.59375
3688,22.34,1637349408.609375
3689,22.61,1637349408.625
3690,22.73,1637349408.640625
3691,22.55,1637349408.65625
3692,22.24,1637349408.671875
3693,22.15,1637349408.6875
3694,22.62,1637349408.703125
3695,23.89,1637349408.71875
3696,25.97,1637349408.734375
3697,28.61,1637349408.75
3698,31.27,1637349408.765625
3699,33.17,1637349408.78125
3700,33.54,1637349408.796875
3701,31.9,1637349408.8125
3702,28.31,1637349408.828125
3703,23.39,1637349408.84375
3704,18.06,1637349408.859375
3705,13.07,1637349408.875
3706,8.64,1637349408.890625
3707,4.34,1637349408.90625
3708,-0.63,1637349408.921875
3709,-6.92,1637349408.9375
3710,-14.64,1637349408.953125
3711,-23.19,1637349408.96875
3712,-31.5,1637349408.984375
3713,-38.45,1637349409.0
3714,-43.43,1637349409.015625
3715,-46.52,1637349409.03125
3716,-48.48,1637349409.046875
3717,-50.48,1637349409.0625
3718,-53.75,1637349409.078125
3719,-59.3,1637349409.09375
3720,-67.48,1637349409.109375
3721,-77.81,1637349409.125
3722,-88.69,1637349409.140625
3723,-97.55,1637349409.15625
3724,-101.34,1637349409.171875
3725,-97.45,1637349409.1875
3726,-84.63,1637349409.203125
3727,-63.67,1637349409.21875
3728,-37.26,1637349409.234375
3729,-9.37,1637349409.25
3730,16.02,1637349409.265625
3731,35.93,1637349409.28125
3732,48.99,1637349409.296875
3733,55.38,1637349409.3125
3734,56.41,1637349409.328125
3735,53.85,1637349409.34375
3736,49.48,1637349409.359375
3737,44.77,1637349409.375
3738,40.73,1637349409.390625
3739,37.83,1637349409.40625
3740,36.1,1637349409.421875
3741,35.2,1637349409.4375
3742,34.67,1637349409.453125
3743,34.12,1637349409.46875
3744,33.38,1637349409.484375
3745,32.56,1637349409.5
3746,31.95,1637349409.515625
3747,31.88,1637349409.53125
3748,32.56,1637349409.546875
3749,33.99,1637349409.5625
3750,35.89,1637349409.578125
3751,37.68,1637349409.59375
3752,38.66,1637349409.609375
3753,38.18,1637349409.625
3754,35.85,1637349409.640625
3755,31.69,1637349409.65625
3756,26.19,1637349409.671875
3757,20.13,1637349409.6875
3758,14.23,1637349409.703125
3759,8.85,1637349409.71875
3760,3.9,1637349409.734375
3761,-1.08,1637349409.75
3762,-6.58,1637349409.765625
3763,-12.77,1637349409.78125
3764,-19.35,1637349409.796875
3765,-25.67,1637349409.8125
3766,-31.0,1637349409.828125
3767,-34.92,1637349409.84375
3768,-37.59,1637349409.859375
3769,-39.67,1637349409.875
3770,-42.15,1637349409.890625
3771,-46.02,1637349409.90625
3772,-51.91,1637349409.921875
3773,-59.71,1637349409.9375
3774,-68.31,1637349409.953125
3775,-75.63,1637349409.96875
3776,-79.02,1637349409.984375
3777,-76.02,1637349410.0
3778,-65.25,1637349410.015625
3779,-47.13,1637349410.03125
3780,-23.93,1637349410.046875
3781,0.86,1637349410.0625
3782,23.63,1637349410.078125
3783,41.67,1637349410.09375
3784,53.76,1637349410.109375
3785,60.11,1637349410.125
3786,61.79,1637349410.140625
3787,60.17,1637349410.15625
3788,56.41,1637349410.171875
3789,51.48,1637349410.1875
3790,46.16,1637349410.203125
3791,41.14,1637349410.21875
3792,36.94,1637349410.234375
3793,33.89,1637349410.25
3794,31.97,1637349410.265625
3795,30.92,1637349410.28125
3796,30.38,1637349410.296875
3797,29.97,1637349410.3125
3798,29.45,1637349410.328125
3799,28.79,1637349410.34375
3800,28.13,1637349410.359375
3801,27.72,1637349410.375
3802,27.79,1637349410.390625
3803,28.45,1637349410.40625
3804,29.44,1637349410.421875
3805,30.26,1637349410.4375
3806,30.19,1637349410.453125
3807,28.62,1637349410.46875
3808,25.28,1637349410.484375
3809,20.46,1637349410.5
3810,14.86,1637349410.515625
3811,9.38,1637349410.53125
3812,4.68,1637349410.546875
3813,0.9,1637349410.5625
3814,-2.39,1637349410.578125
3815,-5.9,1637349410.59375
3816,-10.26,1637349410.609375
3817,-15.74,1637349410.625
3818,-22.04,1637349410.640625
3819,-28.49,1637349410.65625
3820,-34.31,1637349410.671875
3821,-38.99,1637349410.6875
3822,-42.5,1637349410.703125
3823,-45.2,1637349410.71875
3824,-47.79,1637349410.734375
3825,-51.03,1637349410.75
3826,-55.65,1637349410.765625
3827,-62.17,1637349410.78125
3828,-70.6,1637349410.796875
3829,-80.22,1637349410.8125
3830,-89.3,1637349410.828125
3831,-95.26,1637349410.84375
3832,-95.26,1637349410.859375
3833,-87.2,1637349410.875
3834,-70.64,1637349410.890625
3835,-47.22,1637349410.90625
3836,-20.29,1637349410.921875
3837,6.1,1637349410.9375
3838,28.46,1637349410.953125
3839,44.75,1637349410.96875
3840,54.6,1637349410.984375
3841,58.88,1637349411.0
3842,59.03,1637349411.015625
3843,56.48,1637349411.03125
3844,52.45,1637349411.046875
3845,47.89,1637349411.0625
3846,43.65,1637349411.078125
3847,40.34,1637349411.09375
3848,38.31,1637349411.109375
3849,37.48,1637349411.125
3850,37.41,1637349411.140625
3851,37.5,1637349411.15625
3852,37.25,1637349411.171875
3853,36.47,1637349411.1875
3854,35.29,1637349411.203125
3855,34.01,1637349411.21875
3856,32.93,1637349411.234375
3857,32.2,1637349411.25
3858,31.81,1637349411.265625
3859,31.59,1637349411.28125
3860,31.34,1637349411.296875
3861,30.85,1637349411.3125
3862,29.93,1637349411.328125
3863,28.4,1637349411.34375
3864,26.09,1637349411.359375
3865,22.92,1637349411.375
3866,18.9,1637349411.390625
3867,14.23,1637349411.40625
3868,9.26,1637349411.421875
3869,4.41,1637349411.4375
3870,-0.01,1637349411.453125
3871,-3.91,1637349411.46875
3872,-7.49,1637349411.484375
3873,-11.17,1637349411.5
3874,-15.34,1637349411.515625
3875,-20.21,1637349411.53125
3876,-25.6,1637349411.546875
3877,-31.04,1637349411.5625
3878,-35.93,1637349411.578125
3879,-39.81,1637349411.59375
3880,-42.59,1637349411.609375
3881,-44.55,1637349411.625
3882,-46.33,1637349411.640625
3883,-48.69,1637349411.65625
3884,-52.5,1637349411.671875
3885,-58.35,1637349411.6875
3886,-66.4,1637349411.703125
3887,-75.9,1637349411.71875
3888,-85.05,1637349411.734375
3889,-91.19,1637349411.75
3890,-91.41,1637349411.765625
3891,-83.54,1637349411.78125
3892,-67.14,1637349411.796875
3893,-43.88,1637349411.8125
3894,-17.14,1637349411.828125
3895,9.0,1637349411.84375
3896,31.02,1637349411.859375
3897,46.83,1637349411.875
3898,56.08,1637349411.890625
3899,59.71,1637349411.90625
3900,59.3,1637349411.921875
3901,56.45,1637349411.9375
3902,52.49,1637349411.953125
3903,48.37,1637349411.96875
3904,44.76,1637349411.984375
3905,42.03,1637349412.0
3906,40.31,1637349412.015625
3907,39.39,1637349412.03125
3908,38.85,1637349412.046875
3909,38.22,1637349412.0625
3910,37.15,1637349412.078125
3911,35.44,1637349412.09375
3912,33.22,1637349412.109375
3913,30.78,1637349412.125
3914,28.49,1637349412.140625
3915,26.69,1637349412.15625
3916,25.55,1637349412.171875
3917,25.03,1637349412.1875
3918,24.83,1637349412.203125
3919,24.53,1637349412.21875
3920,23.66,1637349412.234375
3921,21.86,1637349412.25
3922,18.96,1637349412.265625
3923,15.01,1637349412.28125
3924,10.31,1637349412.296875
3925,5.24,1637349412.3125
3926,0.23,1637349412.328125
3927,-4.42,1637349412.34375
3928,-8.55,1637349412.359375
3929,-12.19,1637349412.375
3930,-15.54,1637349412.390625
3931,-18.84,1637349412.40625
3932,-22.38,1637349412.421875
3933,-26.32,1637349412.4375
3934,-30.74,1637349412.453125
3935,-35.51,1637349412.46875
3936,-40.38,1637349412.484375
3937,-44.98,1637349412.5
3938,-48.93,1637349412.515625
3939,-52.0,1637349412.53125
3940,-54.35,1637349412.546875
3941,-56.54,1637349412.5625
3942,-59.5,1637349412.578125
3943,-64.21,1637349412.59375
3944,-71.17,1637349412.609375
3945,-79.93,1637349412.625
3946,-88.81,1637349412.640625
3947,-95.1,1637349412.65625
3948,-95.77,1637349412.671875
3949,-88.41,1637349412.6875
3950,-72.27,1637349412.703125
3951,-48.7,1637349412.71875
3952,-20.85,1637349412.734375
3953,7.19,1637349412.75
3954,31.69,1637349412.765625
3955,50.22,1637349412.78125
3956,62.04,1637349412.796875
3957,67.71,1637349412.8125
3958,68.52,1637349412.828125
3959,65.83,1637349412.84375
3960,60.9,1637349412.859375
3961,54.96,1637349412.875
3962,49.21,1637349412.890625
3963,44.77,1637349412.90625
3964,42.34,1637349412.921875
3965,41.92,1637349412.9375
3966,42.77,1637349412.953125
3967,43.83,1637349412.96875
3968,44.13,1637349412.984375
3969,43.28,1637349413.0
3970,41.5,1637349413.015625
3971,39.46,1637349413.03125
3972,37.85,1637349413.046875
3973,37.08,1637349413.0625
3974,37.09,1637349413.078125
3975,37.42,1637349413.09375
3976,37.37,1637349413.109375
3977,36.2,1637349413.125
3978,33.46,1637349413.140625
3979,29.08,1637349413.15625
3980,23.47,1637349413.171875
3981,17.31,1637349413.1875
3982,11.34,1637349413.203125
3983,6.05,1637349413.21875
3984,1.48,1637349413.234375
3985,-2.64,1637349413.25
3986,-6.82,1637349413.265625
3987,-11.49,1637349413.28125
3988,-16.84,1637349413.296875
3989,-22.68,1637349413.3125
3990,-28.59,1637349413.328125
3991,-34.01,1637349413.34375
3992,-38.55,1637349413.359375
3993,-42.18,1637349413.375
3994,-45.28,1637349413.390625
3995,-48.67,1637349413.40625
3996,-53.36,1637349413.421875
3997,-60.1,1637349413.4375
3998,-68.96,1637349413.453125
3999,-78.95,1637349413.46875
4000,-87.89,1637349413.484375
4001,-92.93,1637349413.5
4002,-91.34,1637349413.515625
4003,-81.47,1637349413.53125
4004,-63.49,1637349413.546875
4005,-39.49,1637349413.5625
4006,-12.93,1637349413.578125
4007,12.35,1637349413.59375
4008,33.21,1637349413.609375
4009,47.94,1637349413.625
4010,56.26,1637349413.640625
4011,59.04,1637349413.65625
4012,57.71,1637349413.671875
4013,53.71,1637349413.6875
4014,48.29,1637349413.703125
4015,42.51,1637349413.71875
4016,37.15,1637349413.734375
4017,32.81,1637349413.75
4018,29.82,1637349413.765625
4019,28.14,1637349413.78125
4020,27.4,1637349413.796875
4021,27.02,1637349413.8125
4022,26.45,1637349413.828125
4023,25.38,1637349413.84375
4024,23.89,1637349413.859375
4025,22.39,1637349413.875
4026,21.46,1637349413.890625
4027,21.56,1637349413.90625
4028,22.74,1637349413.921875
4029,24.6,1637349413.9375
4030,26.35,1637349413.953125
4031,27.08,1637349413.96875
4032,26.1,1637349413.984375
4033,23.21,1637349414.0
4034,18.79,1637349414.015625
4035,13.64,1637349414.03125
4036,8.65,1637349414.046875
4037,4.43,1637349414.0625
4038,1.06,1637349414.078125
4039,-1.88,1637349414.09375
4040,-5.09,1637349414.109375
4041,-9.18,1637349414.125
4042,-14.38,1637349414.140625
4043,-20.45,1637349414.15625
4044,-26.78,1637349414.171875
4045,-32.61,1637349414.1875
4046,-37.33,1637349414.203125
4047,-40.72,1637349414.21875
4048,-42.97,1637349414.234375
4049,-44.7,1637349414.25
4050,-46.83,1637349414.265625
4051,-50.34,1637349414.28125
4052,-55.95,1637349414.296875
4053,-63.75,1637349414.3125
4054,-72.81,1637349414.328125
4055,-81.16,1637349414.34375
4056,-86.01,1637349414.359375
4057,-84.62,1637349414.375
4058,-75.16,1637349414.390625
4059,-57.56,1637349414.40625
4060,-33.69,1637349414.421875
4061,-6.92,1637349414.4375
4062,18.86,1637349414.453125
4063,40.41,1637349414.46875
4064,55.83,1637349414.484375
4065,64.75,1637349414.5
4066,67.94,1637349414.515625
4067,66.74,1637349414.53125
4068,62.52,1637349414.546875
4069,56.49,1637349414.5625
4070,49.6,1637349414.578125
4071,42.67,1637349414.59375
4072,36.39,1637349414.609375
4073,31.2,1637349414.625
4074,27.28,1637349414.640625
4075,24.51,1637349414.65625
4076,22.58,1637349414.671875
4077,21.18,1637349414.6875
4078,20.22,1637349414.703125
4079,19.83,1637349414.71875
4080,20.3,1637349414.734375
4081,21.88,1637349414.75
4082,24.51,1637349414.765625
4083,27.73,1637349414.78125
4084,30.72,1637349414.796875
4085,32.51,1637349414.8125
4086,32.39,1637349414.828125
4087,30.2,1637349414.84375
4088,26.32,1637349414.859375
4089,21.61,1637349414.875
4090,16.97,1637349414.890625
4091,12.98,1637349414.90625
4092,9.71,1637349414.921875
4093,6.71,1637349414.9375
4094,3.25,1637349414.953125
4095,-1.21,1637349414.96875
4096,-6.82,1637349414.984375
4097,-13.21,1637349415.0
4098,-19.67,1637349415.015625
4099,-25.38,1637349415.03125
4100,-29.84,1637349415.046875
4101,-32.97,1637349415.0625
4102,-35.17,1637349415.078125
4103,-37.24,1637349415.09375
4104,-40.17,1637349415.109375
4105,-44.87,1637349415.125
4106,-51.83,1637349415.140625
4107,-60.74,1637349415.15625
4108,-70.18,1637349415.171875
4109,-77.77,1637349415.1875
4110,-80.65,1637349415.203125
4111,-76.43,1637349415.21875
4112,-64.12,1637349415.234375
4113,-44.67,1637349415.25
4114,-20.75,1637349415.265625
4115,4.05,1637349415.28125
4116,26.33,1637349415.296875
4117,43.73,1637349415.3125
4118,55.25,1637349415.328125
4119,61.1,1637349415.34375
4120,62.2,1637349415.359375
4121,59.72,1637349415.375
4122,54.85,1637349415.390625
4123,48.76,1637349415.40625
4124,42.52,1637349415.421875
4125,37.05,1637349415.4375
4126,32.94,1637349415.453125
4127,30.36,1637349415.46875
4128,29.05,1637349415.484375
4129,28.5,1637349415.5
4130,28.07,1637349415.515625
4131,27.39,1637349415.53125
4132,26.33,1637349415.546875
4133,25.13,1637349415.5625
4134,24.17,1637349415.578125
4135,23.87,1637349415.59375
4136,24.34,1637349415.609375
4137,25.28,1637349415.625
4138,26.08,1637349415.640625
4139,25.89,1637349415.65625
4140,24.11,1637349415.671875
4141,20.51,1637349415.6875
4142,15.43,1637349415.703125
4143,9.63,1637349415.71875
4144,3.96,1637349415.734375
4145,-1.01,1637349415.75
4146,-5.16,1637349415.765625
4147,-8.87,1637349415.78125
4148,-12.74,1637349415.796875
4149,-17.3,1637349415.8125
4150,-22.7,1637349415.828125
4151,-28.69,1637349415.84375
4152,-34.7,1637349415.859375
4153,-40.06,1637349415.875
4154,-44.36,1637349415.890625
4155,-47.57,1637349415.90625
4156,-50.1,1637349415.921875
4157,-52.72,1637349415.9375
4158,-56.33,1637349415.953125
4159,-61.71,1637349415.96875
4160,-69.13,1637349415.984375
4161,-78.05,1637349416.0
4162,-86.92,1637349416.015625
4163,-93.29,1637349416.03125
4164,-94.42,1637349416.046875
4165,-88.1,1637349416.0625
4166,-73.55,1637349416.078125
4167,-51.94,1637349416.09375
4168,-26.15,1637349416.109375
4169,-0.02,1637349416.125
4170,22.86,1637349416.140625
4171,40.09,1637349416.15625
4172,50.88,1637349416.171875
4173,55.83,1637349416.1875
4174,56.3,1637349416.203125
4175,53.74,1637349416.21875
4176,49.37,1637349416.234375
4177,44.08,1637349416.25
4178,38.63,1637349416.265625
4179,33.69,1637349416.28125
4180,29.81,1637349416.296875
4181,27.28,1637349416.3125
4182,26.02,1637349416.328125
4183,25.64,1637349416.34375
4184,25.64,1637349416.359375
4185,25.7,1637349416.375
4186,25.8,1637349416.390625
4187,26.19,1637349416.40625
4188,27.27,1637349416.421875
4189,29.28,1637349416.4375
4190,32.23,1637349416.453125
4191,35.86,1637349416.46875
4192,39.78,1637349416.484375
4193,43.54,1637349416.5
4194,46.68,1637349416.515625
4195,48.81,1637349416.53125
4196,49.44,1637349416.546875
4197,48.11,1637349416.5625
4198,44.55,1637349416.578125
4199,38.8,1637349416.59375
4200,31.39,1637349416.609375
4201,23.2,1637349416.625
4202,15.2,1637349416.640625
4203,8.06,1637349416.65625
4204,1.89,1637349416.671875
4205,-3.77,1637349416.6875
4206,-9.7,1637349416.703125
4207,-16.59,1637349416.71875
4208,-24.62,1637349416.734375
4209,-33.38,1637349416.75
4210,-42.04,1637349416.765625
4211,-49.74,1637349416.78125
4212,-55.96,1637349416.796875
4213,-60.77,1637349416.8125
4214,-64.77,1637349416.828125
4215,-68.91,1637349416.84375
4216,-74.23,1637349416.859375
4217,-81.52,1637349416.875
4218,-91.12,1637349416.890625
4219,-102.63,1637349416.90625
4220,-114.79,1637349416.921875
4221,-125.46,1637349416.9375
4222,-132.09,1637349416.953125
4223,-132.41,1637349416.96875
4224,-125.38,1637349416.984375
4225,-111.76,1637349417.0
4226,-94.14,1637349417.015625
4227,-76.04,1637349417.03125
4228,-60.6,1637349417.046875
4229,-49.28,1637349417.0625
4230,-41.26,1637349417.078125
4231,-33.79,1637349417.09375
4232,-23.48,1637349417.109375
4233,-7.69,1637349417.125
4234,14.31,1637349417.140625
4235,41.09,1637349417.15625
4236,69.68,1637349417.171875
4237,96.58,1637349417.1875
4238,118.85,1637349417.203125
4239,134.77,1637349417.21875
4240,143.94,1637349417.234375
4241,147.11,1637349417.25
4242,145.59,1637349417.265625
4243,140.92,1637349417.28125
4244,134.48,1637349417.296875
4245,127.29,1637349417.3125
4246,119.91,1637349417.328125
4247,112.41,1637349417.34375
4248,104.38,1637349417.359375
4249,95.16,1637349417.375
4250,84.11,1637349417.390625
4251,70.85,1637349417.40625
4252,55.55,1637349417.421875
4253,39.04,1637349417.4375
4254,22.64,1637349417.453125
4255,7.9,1637349417.46875
4256,-3.85,1637349417.484375
4257,-11.87,1637349417.5
4258,-16.3,1637349417.515625
4259,-18.1,1637349417.53125
4260,-18.76,1637349417.546875
4261,-19.8,1637349417.5625
4262,-22.19,1637349417.578125
4263,-26.13,1637349417.59375
4264,-31.03,1637349417.609375
4265,-35.9,1637349417.625
4266,-39.86,1637349417.640625
4267,-42.57,1637349417.65625
4268,-44.4,1637349417.671875
4269,-46.35,1637349417.6875
4270,-49.65,1637349417.703125
4271,-55.2,1637349417.71875
4272,-63.12,1637349417.734375
4273,-72.28,1637349417.75
4274,-80.52,1637349417.765625
4275,-84.99,1637349417.78125
4276,-83.15,1637349417.796875
4277,-73.62,1637349417.8125
4278,-56.79,1637349417.828125
4279,-34.86,1637349417.84375
4280,-11.18,1637349417.859375
4281,10.76,1637349417.875
4282,28.31,1637349417.890625
4283,40.11,1637349417.90625
4284,46.11,1637349417.921875
4285,47.2,1637349417.9375
