,BVP,timestamp
1,-0.0,1638871239.0
2,-0.0,1638871239.015625
3,-0.0,1638871239.03125
4,-0.0,1638871239.046875
5,-0.0,1638871239.0625
6,-0.0,1638871239.078125
7,-0.0,1638871239.09375
8,-0.0,1638871239.109375
9,-0.0,1638871239.125
10,-0.0,1638871239.140625
11,0.0,1638871239.15625
12,0.01,1638871239.171875
13,0.01,1638871239.1875
14,-0.0,1638871239.203125
15,-0.03,1638871239.21875
16,-0.05,1638871239.234375
17,-0.05,1638871239.25
18,0.0,1638871239.265625
19,0.13,1638871239.28125
20,0.36,1638871239.296875
21,0.66,1638871239.3125
22,1.01,1638871239.328125
23,1.37,1638871239.34375
24,1.72,1638871239.359375
25,2.06,1638871239.375
26,2.4,1638871239.390625
27,2.79,1638871239.40625
28,3.24,1638871239.421875
29,3.8,1638871239.4375
30,4.42,1638871239.453125
31,5.06,1638871239.46875
32,5.66,1638871239.484375
33,6.2,1638871239.5
34,6.68,1638871239.515625
35,7.15,1638871239.53125
36,7.68,1638871239.546875
37,8.31,1638871239.5625
38,9.14,1638871239.578125
39,10.09,1638871239.59375
40,11.04,1638871239.609375
41,11.88,1638871239.625
42,12.56,1638871239.640625
43,13.14,1638871239.65625
44,13.76,1638871239.671875
45,14.65,1638871239.6875
46,15.96,1638871239.703125
47,17.91,1638871239.71875
48,20.32,1638871239.734375
49,22.9,1638871239.75
50,25.38,1638871239.765625
51,27.58,1638871239.78125
52,29.57,1638871239.796875
53,31.68,1638871239.8125
54,34.32,1638871239.828125
55,37.81,1638871239.84375
56,42.54,1638871239.859375
57,48.15,1638871239.875
58,54.1,1638871239.890625
59,59.83,1638871239.90625
60,64.97,1638871239.921875
61,69.58,1638871239.9375
62,74.14,1638871239.953125
63,79.34,1638871239.96875
64,85.71,1638871239.984375
65,93.76,1638871240.0
66,103.0,1638871240.015625
67,112.62,1638871240.03125
68,121.73,1638871240.046875
69,129.77,1638871240.0625
70,136.75,1638871240.078125
71,143.3,1638871240.09375
72,150.75,1638871240.109375
73,157.77,1638871240.125
74,166.64,1638871240.140625
75,177.95,1638871240.15625
76,191.79,1638871240.171875
77,206.97,1638871240.1875
78,220.57,1638871240.203125
79,228.25,1638871240.21875
80,225.36,1638871240.234375
81,208.53,1638871240.25
82,176.87,1638871240.265625
83,132.76,1638871240.28125
84,80.05,1638871240.296875
85,23.07,1638871240.3125
86,-34.94,1638871240.328125
87,-92.44,1638871240.34375
88,-149.16,1638871240.359375
89,-205.23,1638871240.375
90,-260.37,1638871240.390625
91,-313.74,1638871240.40625
92,-363.87,1638871240.421875
93,-409.83,1638871240.4375
94,-450.91,1638871240.453125
95,-486.5,1638871240.46875
96,-515.74,1638871240.484375
97,-537.23,1638871240.5
98,-549.22,1638871240.515625
99,-549.96,1638871240.53125
100,-538.37,1638871240.546875
101,-514.21,1638871240.5625
102,-478.67,1638871240.578125
103,-433.88,1638871240.59375
104,-382.45,1638871240.609375
105,-327.02,1638871240.625
106,-269.84,1638871240.640625
107,-212.63,1638871240.65625
108,-156.66,1638871240.671875
109,-102.95,1638871240.6875
110,-52.37,1638871240.703125
111,-5.9,1638871240.71875
112,35.58,1638871240.734375
113,71.43,1638871240.75
114,101.35,1638871240.765625
115,125.5,1638871240.78125
116,144.38,1638871240.796875
117,158.69,1638871240.8125
118,169.15,1638871240.828125
119,176.37,1638871240.84375
120,180.75,1638871240.859375
121,182.57,1638871240.875
122,182.07,1638871240.890625
123,179.51,1638871240.90625
124,175.23,1638871240.921875
125,169.65,1638871240.9375
126,163.18,1638871240.953125
127,156.15,1638871240.96875
128,148.81,1638871240.984375
129,141.3,1638871241.0
130,133.69,1638871241.015625
131,126.02,1638871241.03125
132,118.33,1638871241.046875
133,110.69,1638871241.0625
134,103.16,1638871241.078125
135,95.8,1638871241.09375
136,88.68,1638871241.109375
137,81.83,1638871241.125
138,75.25,1638871241.140625
139,68.95,1638871241.15625
140,62.95,1638871241.171875
141,57.25,1638871241.1875
142,51.86,1638871241.203125
143,46.78,1638871241.21875
144,42.03,1638871241.234375
145,37.59,1638871241.25
146,33.45,1638871241.265625
147,29.61,1638871241.28125
148,26.07,1638871241.296875
149,22.81,1638871241.3125
150,19.83,1638871241.328125
151,17.11,1638871241.34375
152,14.67,1638871241.359375
153,12.48,1638871241.375
154,10.54,1638871241.390625
155,8.83,1638871241.40625
156,7.35,1638871241.421875
157,6.07,1638871241.4375
158,4.97,1638871241.453125
159,4.05,1638871241.46875
160,3.27,1638871241.484375
161,2.62,1638871241.5
162,2.09,1638871241.515625
163,1.65,1638871241.53125
164,1.3,1638871241.546875
165,1.01,1638871241.5625
166,0.79,1638871241.578125
167,0.61,1638871241.59375
168,0.48,1638871241.609375
169,0.38,1638871241.625
170,0.31,1638871241.640625
171,0.26,1638871241.65625
172,0.23,1638871241.671875
173,0.21,1638871241.6875
174,0.21,1638871241.703125
175,0.22,1638871241.71875
176,0.24,1638871241.734375
177,0.27,1638871241.75
178,0.3,1638871241.765625
179,0.34,1638871241.78125
180,0.38,1638871241.796875
181,0.43,1638871241.8125
182,0.47,1638871241.828125
183,0.52,1638871241.84375
184,0.56,1638871241.859375
185,0.62,1638871241.875
186,0.67,1638871241.890625
187,0.73,1638871241.90625
188,0.79,1638871241.921875
189,0.85,1638871241.9375
190,0.93,1638871241.953125
191,1.0,1638871241.96875
192,1.09,1638871241.984375
193,1.19,1638871242.0
194,1.3,1638871242.015625
195,1.42,1638871242.03125
196,1.55,1638871242.046875
197,1.71,1638871242.0625
198,1.88,1638871242.078125
199,2.07,1638871242.09375
200,2.28,1638871242.109375
201,2.52,1638871242.125
202,2.78,1638871242.140625
203,3.07,1638871242.15625
204,3.38,1638871242.171875
205,3.73,1638871242.1875
206,4.11,1638871242.203125
207,4.53,1638871242.21875
208,4.98,1638871242.234375
209,5.47,1638871242.25
210,5.99,1638871242.265625
211,6.56,1638871242.28125
212,7.17,1638871242.296875
213,7.82,1638871242.3125
214,8.52,1638871242.328125
215,9.26,1638871242.34375
216,10.04,1638871242.359375
217,10.87,1638871242.375
218,11.75,1638871242.390625
219,12.67,1638871242.40625
220,13.64,1638871242.421875
221,14.67,1638871242.4375
222,15.76,1638871242.453125
223,16.92,1638871242.46875
224,18.13,1638871242.484375
225,19.4,1638871242.5
226,20.7,1638871242.515625
227,21.98,1638871242.53125
228,23.18,1638871242.546875
229,24.21,1638871242.5625
230,24.96,1638871242.578125
231,25.29,1638871242.59375
232,25.1,1638871242.609375
233,24.25,1638871242.625
234,22.7,1638871242.640625
235,20.39,1638871242.65625
236,17.36,1638871242.671875
237,13.66,1638871242.6875
238,9.45,1638871242.703125
239,4.9,1638871242.71875
240,0.21,1638871242.734375
241,-4.38,1638871242.75
242,-8.65,1638871242.765625
243,-12.41,1638871242.78125
244,-15.51,1638871242.796875
245,-17.87,1638871242.8125
246,-19.43,1638871242.828125
247,-20.2,1638871242.84375
248,-20.27,1638871242.859375
249,-19.74,1638871242.875
250,-18.73,1638871242.890625
251,-17.35,1638871242.90625
252,-15.73,1638871242.921875
253,-13.97,1638871242.9375
254,-12.13,1638871242.953125
255,-10.23,1638871242.96875
256,-8.26,1638871242.984375
257,-6.24,1638871243.0
258,-4.19,1638871243.015625
259,-2.13,1638871243.03125
260,-0.09,1638871243.046875
261,1.88,1638871243.0625
262,3.78,1638871243.078125
263,5.64,1638871243.09375
264,7.53,1638871243.109375
265,9.64,1638871243.125
266,11.81,1638871243.140625
267,13.98,1638871243.15625
268,16.12,1638871243.171875
269,18.21,1638871243.1875
270,20.21,1638871243.203125
271,22.15,1638871243.21875
272,24.14,1638871243.234375
273,26.36,1638871243.25
274,29.11,1638871243.265625
275,32.2,1638871243.28125
276,35.52,1638871243.296875
277,38.94,1638871243.3125
278,42.31,1638871243.328125
279,45.55,1638871243.34375
280,48.61,1638871243.359375
281,51.66,1638871243.375
282,55.06,1638871243.390625
283,59.35,1638871243.40625
284,64.18,1638871243.421875
285,69.32,1638871243.4375
286,74.46,1638871243.453125
287,79.27,1638871243.46875
288,83.39,1638871243.484375
289,86.66,1638871243.5
290,89.3,1638871243.515625
291,92.0,1638871243.53125
292,95.76,1638871243.546875
293,99.94,1638871243.5625
294,103.96,1638871243.578125
295,107.12,1638871243.59375
296,108.52,1638871243.609375
297,107.1,1638871243.625
298,101.95,1638871243.640625
299,92.52,1638871243.65625
300,78.46,1638871243.671875
301,63.99,1638871243.6875
302,49.29,1638871243.703125
303,34.09,1638871243.71875
304,17.89,1638871243.734375
305,0.01,1638871243.75
306,-20.19,1638871243.765625
307,-42.72,1638871243.78125
308,-66.39,1638871243.796875
309,-88.73,1638871243.8125
310,-106.9,1638871243.828125
311,-121.98,1638871243.84375
312,-135.26,1638871243.859375
313,-147.78,1638871243.875
314,-160.4,1638871243.890625
315,-174.02,1638871243.90625
316,-189.63,1638871243.921875
317,-208.16,1638871243.9375
318,-230.11,1638871243.953125
319,-255.14,1638871243.96875
320,-285.07,1638871243.984375
321,-317.59,1638871244.0
322,-346.09,1638871244.015625
323,-362.46,1638871244.03125
324,-361.48,1638871244.046875
325,-343.81,1638871244.0625
326,-316.28,1638871244.078125
327,-289.15,1638871244.09375
328,-248.39,1638871244.109375
329,-191.36,1638871244.125
330,-122.34,1638871244.140625
331,-48.68,1638871244.15625
332,22.69,1638871244.171875
333,85.17,1638871244.1875
334,131.92,1638871244.203125
335,157.97,1638871244.21875
336,163.63,1638871244.234375
337,151.09,1638871244.25
338,128.2,1638871244.265625
339,103.88,1638871244.28125
340,85.0,1638871244.296875
341,74.52,1638871244.3125
342,70.9,1638871244.328125
343,70.44,1638871244.34375
344,69.73,1638871244.359375
345,66.92,1638871244.375
346,67.51,1638871244.390625
347,71.02,1638871244.40625
348,75.7,1638871244.421875
349,79.72,1638871244.4375
350,81.69,1638871244.453125
351,80.47,1638871244.46875
352,75.74,1638871244.484375
353,68.4,1638871244.5
354,60.03,1638871244.515625
355,51.67,1638871244.53125
356,40.55,1638871244.546875
357,23.03,1638871244.5625
358,-3.53,1638871244.578125
359,-38.84,1638871244.59375
360,-78.62,1638871244.609375
361,-114.77,1638871244.625
362,-137.38,1638871244.640625
363,-137.72,1638871244.65625
364,-111.3,1638871244.671875
365,-60.62,1638871244.6875
366,6.7,1638871244.703125
367,79.87,1638871244.71875
368,146.75,1638871244.734375
369,195.74,1638871244.75
370,217.46,1638871244.765625
371,206.27,1638871244.78125
372,161.3,1638871244.796875
373,86.98,1638871244.8125
374,-7.89,1638871244.828125
375,-110.69,1638871244.84375
376,-207.12,1638871244.859375
377,-284.04,1638871244.875
378,-332.25,1638871244.890625
379,-348.25,1638871244.90625
380,-334.43,1638871244.921875
381,-297.87,1638871244.9375
382,-247.58,1638871244.953125
383,-192.01,1638871244.96875
384,-136.96,1638871244.984375
385,-85.28,1638871245.0
386,-37.91,1638871245.015625
387,4.38,1638871245.03125
388,39.85,1638871245.046875
389,65.89,1638871245.0625
390,79.62,1638871245.078125
391,78.96,1638871245.09375
392,63.25,1638871245.109375
393,34.02,1638871245.125
394,-4.73,1638871245.140625
395,-46.65,1638871245.15625
396,-83.85,1638871245.171875
397,-108.94,1638871245.1875
398,-117.06,1638871245.203125
399,-107.57,1638871245.21875
400,-84.12,1638871245.234375
401,-53.06,1638871245.25
402,-21.25,1638871245.265625
403,5.96,1638871245.28125
404,25.52,1638871245.296875
405,36.58,1638871245.3125
406,39.99,1638871245.328125
407,37.94,1638871245.34375
408,33.51,1638871245.359375
409,30.34,1638871245.375
410,31.73,1638871245.390625
411,39.44,1638871245.40625
412,52.81,1638871245.421875
413,68.71,1638871245.4375
414,82.59,1638871245.453125
415,90.15,1638871245.46875
416,88.88,1638871245.484375
417,78.87,1638871245.5
418,62.59,1638871245.515625
419,44.03,1638871245.53125
420,27.53,1638871245.546875
421,16.63,1638871245.5625
422,13.22,1638871245.578125
423,17.15,1638871245.59375
424,26.33,1638871245.609375
425,37.39,1638871245.625
426,46.69,1638871245.640625
427,51.47,1638871245.65625
428,50.97,1638871245.671875
429,46.68,1638871245.6875
430,41.84,1638871245.703125
431,40.02,1638871245.71875
432,43.56,1638871245.734375
433,52.52,1638871245.75
434,64.73,1638871245.765625
435,76.86,1638871245.78125
436,85.91,1638871245.796875
437,90.31,1638871245.8125
438,90.11,1638871245.828125
439,86.48,1638871245.84375
440,80.67,1638871245.859375
441,73.5,1638871245.875
442,65.32,1638871245.890625
443,56.45,1638871245.90625
444,47.5,1638871245.921875
445,39.27,1638871245.9375
446,32.59,1638871245.953125
447,28.05,1638871245.96875
448,26.12,1638871245.984375
449,27.22,1638871246.0
450,31.69,1638871246.015625
451,39.46,1638871246.03125
452,49.57,1638871246.046875
453,60.31,1638871246.0625
454,69.61,1638871246.078125
455,75.8,1638871246.09375
456,78.23,1638871246.109375
457,77.24,1638871246.125
458,73.68,1638871246.140625
459,68.43,1638871246.15625
460,62.13,1638871246.171875
461,55.26,1638871246.1875
462,48.48,1638871246.203125
463,42.73,1638871246.21875
464,38.83,1638871246.234375
465,37.05,1638871246.25
466,36.75,1638871246.265625
467,36.38,1638871246.28125
468,34.09,1638871246.296875
469,28.74,1638871246.3125
470,20.55,1638871246.328125
471,11.55,1638871246.34375
472,4.81,1638871246.359375
473,3.08,1638871246.375
474,7.34,1638871246.390625
475,16.1,1638871246.40625
476,25.83,1638871246.421875
477,32.43,1638871246.4375
478,32.98,1638871246.453125
479,26.76,1638871246.46875
480,15.14,1638871246.484375
481,0.57,1638871246.5
482,-14.57,1638871246.515625
483,-28.55,1638871246.53125
484,-40.15,1638871246.546875
485,-48.26,1638871246.5625
486,-51.68,1638871246.578125
487,-49.47,1638871246.59375
488,-41.72,1638871246.609375
489,-29.89,1638871246.625
490,-16.6,1638871246.640625
491,-4.8,1638871246.65625
492,3.25,1638871246.671875
493,6.6,1638871246.6875
494,5.82,1638871246.703125
495,2.72,1638871246.71875
496,-0.12,1638871246.734375
497,0.29,1638871246.75
498,7.05,1638871246.765625
499,22.83,1638871246.78125
500,49.16,1638871246.796875
501,85.58,1638871246.8125
502,129.33,1638871246.828125
503,175.75,1638871246.84375
504,219.53,1638871246.859375
505,256.25,1638871246.875
506,283.48,1638871246.890625
507,301.09,1638871246.90625
508,310.49,1638871246.921875
509,313.57,1638871246.9375
510,311.8,1638871246.953125
511,305.95,1638871246.96875
512,296.35,1638871246.984375
513,283.31,1638871247.0
514,267.39,1638871247.015625
515,249.39,1638871247.03125
516,230.42,1638871247.046875
517,211.84,1638871247.0625
518,195.22,1638871247.078125
519,181.92,1638871247.09375
520,172.4,1638871247.109375
521,165.5,1638871247.125
522,158.56,1638871247.140625
523,148.31,1638871247.15625
524,132.3,1638871247.171875
525,110.0,1638871247.1875
526,83.01,1638871247.203125
527,54.09,1638871247.21875
528,25.8,1638871247.234375
529,-0.59,1638871247.25
530,-25.32,1638871247.265625
531,-49.57,1638871247.28125
532,-74.66,1638871247.296875
533,-101.41,1638871247.3125
534,-129.74,1638871247.328125
535,-158.6,1638871247.34375
536,-185.92,1638871247.359375
537,-208.74,1638871247.375
538,-223.7,1638871247.390625
539,-228.22,1638871247.40625
540,-221.65,1638871247.421875
541,-206.2,1638871247.4375
542,-186.79,1638871247.453125
543,-169.64,1638871247.46875
544,-160.23,1638871247.484375
545,-161.53,1638871247.5
546,-173.19,1638871247.515625
547,-192.08,1638871247.53125
548,-213.72,1638871247.546875
549,-233.6,1638871247.5625
550,-248.02,1638871247.578125
551,-253.96,1638871247.59375
552,-248.75,1638871247.609375
553,-230.12,1638871247.625
554,-197.13,1638871247.640625
555,-151.41,1638871247.65625
556,-97.86,1638871247.671875
557,-44.26,1638871247.6875
558,0.83,1638871247.703125
559,30.57,1638871247.71875
560,41.9,1638871247.734375
561,36.02,1638871247.75
562,17.17,1638871247.765625
563,-9.41,1638871247.78125
564,-39.36,1638871247.796875
565,-70.28,1638871247.8125
566,-101.4,1638871247.828125
567,-132.95,1638871247.84375
568,-165.43,1638871247.859375
569,-199.37,1638871247.875
570,-235.47,1638871247.890625
571,-274.96,1638871247.90625
572,-319.5,1638871247.921875
573,-370.32,1638871247.9375
574,-426.98,1638871247.953125
575,-486.1,1638871247.96875
576,-541.0,1638871247.984375
577,-583.03,1638871248.0
578,-604.13,1638871248.015625
579,-599.72,1638871248.03125
580,-570.35,1638871248.046875
581,-521.28,1638871248.0625
582,-460.12,1638871248.078125
583,-393.78,1638871248.09375
584,-326.46,1638871248.109375
585,-259.33,1638871248.125
586,-191.91,1638871248.140625
587,-123.88,1638871248.15625
588,-56.14,1638871248.171875
589,9.53,1638871248.1875
590,71.58,1638871248.203125
591,129.83,1638871248.21875
592,185.83,1638871248.234375
593,242.38,1638871248.25
594,302.32,1638871248.265625
595,366.91,1638871248.28125
596,434.42,1638871248.296875
597,499.16,1638871248.3125
598,552.18,1638871248.328125
599,583.3,1638871248.34375
600,584.15,1638871248.359375
601,551.03,1638871248.375
602,486.19,1638871248.390625
603,397.04,1638871248.40625
604,293.95,1638871248.421875
605,187.51,1638871248.4375
606,86.99,1638871248.453125
607,-0.16,1638871248.46875
608,-67.95,1638871248.484375
609,-111.79,1638871248.5
610,-129.02,1638871248.515625
611,-119.76,1638871248.53125
612,-87.39,1638871248.546875
613,-37.96,1638871248.5625
614,21.16,1638871248.578125
615,82.86,1638871248.59375
616,141.33,1638871248.609375
617,192.26,1638871248.625
618,232.77,1638871248.640625
619,261.39,1638871248.65625
620,278.09,1638871248.671875
621,284.14,1638871248.6875
622,281.71,1638871248.703125
623,272.96,1638871248.71875
624,259.35,1638871248.734375
625,241.46,1638871248.75
626,219.59,1638871248.765625
627,194.51,1638871248.78125
628,167.99,1638871248.796875
629,142.43,1638871248.8125
630,119.97,1638871248.828125
631,101.56,1638871248.84375
632,86.45,1638871248.859375
633,72.63,1638871248.875
634,57.8,1638871248.890625
635,40.36,1638871248.90625
636,20.08,1638871248.921875
637,-1.93,1638871248.9375
638,-23.82,1638871248.953125
639,-43.56,1638871248.96875
640,-59.48,1638871248.984375
641,-70.63,1638871249.0
642,-76.84,1638871249.015625
643,-78.7,1638871249.03125
644,-77.29,1638871249.046875
645,-73.89,1638871249.0625
646,-69.62,1638871249.078125
647,-65.22,1638871249.09375
648,-61.04,1638871249.109375
649,-57.14,1638871249.125
650,-53.57,1638871249.140625
651,-50.51,1638871249.15625
652,-48.36,1638871249.171875
653,-47.54,1638871249.1875
654,-48.35,1638871249.203125
655,-50.64,1638871249.21875
656,-53.76,1638871249.234375
657,-56.51,1638871249.25
658,-57.35,1638871249.265625
659,-54.86,1638871249.28125
660,-48.13,1638871249.296875
661,-37.29,1638871249.3125
662,-23.61,1638871249.328125
663,-9.33,1638871249.34375
664,3.3,1638871249.359375
665,12.72,1638871249.375
666,18.87,1638871249.390625
667,23.21,1638871249.40625
668,27.7,1638871249.421875
669,33.31,1638871249.4375
670,38.77,1638871249.453125
671,40.12,1638871249.46875
672,31.68,1638871249.484375
673,8.67,1638871249.5
674,-30.37,1638871249.515625
675,-81.7,1638871249.53125
676,-137.01,1638871249.546875
677,-186.15,1638871249.5625
678,-220.78,1638871249.578125
679,-237.39,1638871249.59375
680,-237.94,1638871249.609375
681,-228.16,1638871249.625
682,-214.66,1638871249.640625
683,-202.51,1638871249.65625
684,-194.04,1638871249.671875
685,-189.29,1638871249.6875
686,-186.87,1638871249.703125
687,-184.42,1638871249.71875
688,-178.62,1638871249.734375
689,-165.3,1638871249.75
690,-140.64,1638871249.765625
691,-103.29,1638871249.78125
692,-56.13,1638871249.796875
693,-6.36,1638871249.8125
694,36.96,1638871249.828125
695,66.8,1638871249.84375
696,81.33,1638871249.859375
697,84.12,1638871249.875
698,81.27,1638871249.890625
699,77.56,1638871249.90625
700,73.58,1638871249.921875
701,65.95,1638871249.9375
702,50.23,1638871249.953125
703,24.35,1638871249.96875
704,-9.74,1638871249.984375
705,-46.57,1638871250.0
706,-80.16,1638871250.015625
707,-106.82,1638871250.03125
708,-126.89,1638871250.046875
709,-144.12,1638871250.0625
710,-163.33,1638871250.078125
711,-187.7,1638871250.09375
712,-216.71,1638871250.109375
713,-246.15,1638871250.125
714,-269.45,1638871250.140625
715,-279.97,1638871250.15625
716,-273.11,1638871250.171875
717,-247.75,1638871250.1875
718,-206.98,1638871250.203125
719,-157.24,1638871250.21875
720,-106.6,1638871250.234375
721,-62.37,1638871250.25
722,-29.8,1638871250.265625
723,-11.63,1638871250.28125
724,-8.11,1638871250.296875
725,-17.46,1638871250.3125
726,-35.67,1638871250.328125
727,-56.88,1638871250.34375
728,-73.7,1638871250.359375
729,-78.7,1638871250.375
730,-65.82,1638871250.390625
731,-33.56,1638871250.40625
732,13.09,1638871250.421875
733,63.13,1638871250.4375
734,102.69,1638871250.453125
735,119.84,1638871250.46875
736,108.43,1638871250.484375
737,70.52,1638871250.5
738,15.03,1638871250.515625
739,-43.38,1638871250.53125
740,-91.3,1638871250.546875
741,-121.23,1638871250.5625
742,-132.97,1638871250.578125
743,-131.49,1638871250.59375
744,-123.18,1638871250.609375
745,-113.83,1638871250.625
746,-105.94,1638871250.640625
747,-100.18,1638871250.65625
748,-91.98,1638871250.671875
749,-77.88,1638871250.6875
750,-58.47,1638871250.703125
751,-38.24,1638871250.71875
752,-22.21,1638871250.734375
753,-12.09,1638871250.75
754,-6.84,1638871250.765625
755,-1.32,1638871250.78125
756,9.14,1638871250.796875
757,33.92,1638871250.8125
758,78.07,1638871250.828125
759,138.92,1638871250.84375
760,207.17,1638871250.859375
761,272.42,1638871250.875
762,329.07,1638871250.890625
763,375.35,1638871250.90625
764,416.31,1638871250.921875
765,457.41,1638871250.9375
766,512.05,1638871250.953125
767,589.93,1638871250.96875
768,691.45,1638871250.984375
769,807.18,1638871251.0
770,922.45,1638871251.015625
771,1024.49,1638871251.03125
772,1102.66,1638871251.046875
773,1155.24,1638871251.0625
774,1125.86,1638871251.078125
775,984.62,1638871251.09375
776,748.06,1638871251.109375
777,475.37,1638871251.125
778,227.56,1638871251.140625
779,33.51,1638871251.15625
780,-91.89,1638871251.171875
781,-175.44,1638871251.1875
782,-235.31,1638871251.203125
783,-280.69,1638871251.21875
784,-306.05,1638871251.234375
785,-304.84,1638871251.25
786,-280.32,1638871251.265625
787,-239.56,1638871251.28125
788,-193.06,1638871251.296875
789,-147.8,1638871251.3125
790,-108.87,1638871251.328125
791,-74.81,1638871251.34375
792,-44.43,1638871251.359375
793,-10.53,1638871251.375
794,32.01,1638871251.390625
795,81.81,1638871251.40625
796,130.21,1638871251.421875
797,161.44,1638871251.4375
798,162.77,1638871251.453125
799,127.45,1638871251.46875
800,60.52,1638871251.484375
801,-27.8,1638871251.5
802,-121.82,1638871251.515625
803,-208.6,1638871251.53125
804,-282.34,1638871251.546875
805,-344.34,1638871251.5625
806,-403.7,1638871251.578125
807,-466.83,1638871251.59375
808,-534.58,1638871251.609375
809,-599.92,1638871251.625
810,-654.65,1638871251.640625
811,-691.31,1638871251.65625
812,-706.56,1638871251.671875
813,-701.7,1638871251.6875
814,-655.87,1638871251.703125
815,-562.57,1638871251.71875
816,-433.55,1638871251.734375
817,-294.83,1638871251.75
818,-169.37,1638871251.765625
819,-68.18,1638871251.78125
820,8.42,1638871251.796875
821,64.71,1638871251.8125
822,104.93,1638871251.828125
823,132.3,1638871251.84375
824,145.51,1638871251.859375
825,145.19,1638871251.875
826,136.18,1638871251.890625
827,126.77,1638871251.90625
828,124.43,1638871251.921875
829,130.99,1638871251.9375
830,143.82,1638871251.953125
831,157.6,1638871251.96875
832,167.32,1638871251.984375
833,167.2,1638871252.0
834,155.4,1638871252.015625
835,135.12,1638871252.03125
836,112.78,1638871252.046875
837,94.36,1638871252.0625
838,81.26,1638871252.078125
839,72.55,1638871252.09375
840,66.55,1638871252.109375
841,62.97,1638871252.125
842,63.22,1638871252.140625
843,69.29,1638871252.15625
844,83.41,1638871252.171875
845,106.65,1638871252.1875
846,137.55,1638871252.203125
847,169.58,1638871252.21875
848,196.02,1638871252.234375
849,211.46,1638871252.25
850,214.0,1638871252.265625
851,203.66,1638871252.28125
852,181.39,1638871252.296875
853,148.79,1638871252.3125
854,107.71,1638871252.328125
855,60.73,1638871252.34375
856,7.72,1638871252.359375
857,-49.71,1638871252.375
858,-109.33,1638871252.390625
859,-167.25,1638871252.40625
860,-219.95,1638871252.421875
861,-266.98,1638871252.4375
862,-311.28,1638871252.453125
863,-357.31,1638871252.46875
864,-388.63,1638871252.484375
865,-392.95,1638871252.5
866,-366.19,1638871252.515625
867,-318.42,1638871252.53125
868,-265.74,1638871252.546875
869,-221.55,1638871252.5625
870,-194.11,1638871252.578125
871,-184.99,1638871252.59375
872,-188.64,1638871252.609375
873,-193.16,1638871252.625
874,-196.52,1638871252.640625
875,-193.57,1638871252.65625
876,-187.43,1638871252.671875
877,-185.53,1638871252.6875
878,-193.41,1638871252.703125
879,-213.27,1638871252.71875
880,-242.67,1638871252.734375
881,-274.84,1638871252.75
882,-298.59,1638871252.765625
883,-306.54,1638871252.78125
884,-287.08,1638871252.796875
885,-238.77,1638871252.8125
886,-166.64,1638871252.828125
887,-77.88,1638871252.84375
888,17.02,1638871252.859375
889,104.41,1638871252.875
890,162.94,1638871252.890625
891,180.04,1638871252.90625
892,159.73,1638871252.921875
893,121.62,1638871252.9375
894,93.29,1638871252.953125
895,81.86,1638871252.96875
896,86.6,1638871252.984375
897,103.22,1638871253.0
898,128.22,1638871253.015625
899,153.97,1638871253.03125
900,179.39,1638871253.046875
901,205.41,1638871253.0625
902,233.07,1638871253.078125
903,259.76,1638871253.09375
904,280.24,1638871253.109375
905,291.14,1638871253.125
906,290.39,1638871253.140625
907,277.81,1638871253.15625
908,255.45,1638871253.171875
909,229.51,1638871253.1875
910,206.41,1638871253.203125
911,190.47,1638871253.21875
912,181.62,1638871253.234375
913,176.29,1638871253.25
914,171.49,1638871253.265625
915,164.94,1638871253.28125
916,155.62,1638871253.296875
917,144.16,1638871253.3125
918,133.78,1638871253.328125
919,127.49,1638871253.34375
920,126.18,1638871253.359375
921,127.95,1638871253.375
922,129.38,1638871253.390625
923,128.76,1638871253.40625
924,126.13,1638871253.421875
925,122.63,1638871253.4375
926,119.61,1638871253.453125
927,118.29,1638871253.46875
928,118.41,1638871253.484375
929,117.96,1638871253.5
930,113.93,1638871253.515625
931,103.56,1638871253.53125
932,86.37,1638871253.546875
933,64.02,1638871253.5625
934,39.78,1638871253.578125
935,17.29,1638871253.59375
936,-0.38,1638871253.609375
937,-11.96,1638871253.625
938,-18.46,1638871253.640625
939,-22.31,1638871253.65625
940,-26.19,1638871253.671875
941,-31.46,1638871253.6875
942,-37.99,1638871253.703125
943,-44.76,1638871253.71875
944,-50.83,1638871253.734375
945,-56.02,1638871253.75
946,-60.97,1638871253.765625
947,-66.59,1638871253.78125
948,-73.26,1638871253.796875
949,-80.54,1638871253.8125
950,-87.37,1638871253.828125
951,-92.69,1638871253.84375
952,-95.89,1638871253.859375
953,-97.02,1638871253.875
954,-96.47,1638871253.890625
955,-94.72,1638871253.90625
956,-92.11,1638871253.921875
957,-88.75,1638871253.9375
958,-84.68,1638871253.953125
959,-79.93,1638871253.96875
960,-74.63,1638871253.984375
961,-68.99,1638871254.0
962,-63.28,1638871254.015625
963,-57.75,1638871254.03125
964,-52.54,1638871254.046875
965,-47.6,1638871254.0625
966,-42.69,1638871254.078125
967,-37.48,1638871254.09375
968,-31.69,1638871254.109375
969,-25.23,1638871254.125
970,-18.3,1638871254.140625
971,-11.35,1638871254.15625
972,-4.92,1638871254.171875
973,0.59,1638871254.1875
974,5.07,1638871254.203125
975,8.76,1638871254.21875
976,12.15,1638871254.234375
977,15.81,1638871254.25
978,20.25,1638871254.265625
979,25.78,1638871254.28125
980,32.51,1638871254.296875
981,40.31,1638871254.3125
982,48.6,1638871254.328125
983,56.24,1638871254.34375
984,61.63,1638871254.359375
985,63.17,1638871254.375
986,60.1,1638871254.390625
987,52.95,1638871254.40625
988,43.64,1638871254.421875
989,34.77,1638871254.4375
990,28.45,1638871254.453125
991,25.53,1638871254.46875
992,25.36,1638871254.484375
993,26.4,1638871254.5
994,27.17,1638871254.515625
995,27.02,1638871254.53125
996,26.18,1638871254.546875
997,25.32,1638871254.5625
998,24.8,1638871254.578125
999,24.39,1638871254.59375
1000,23.37,1638871254.609375
1001,20.94,1638871254.625
1002,16.75,1638871254.640625
1003,10.98,1638871254.65625
1004,4.21,1638871254.671875
1005,-2.86,1638871254.6875
1006,-9.68,1638871254.703125
1007,-15.96,1638871254.71875
1008,-21.66,1638871254.734375
1009,-26.95,1638871254.75
1010,-32.16,1638871254.765625
1011,-37.71,1638871254.78125
1012,-43.94,1638871254.796875
1013,-50.93,1638871254.8125
1014,-58.28,1638871254.828125
1015,-65.21,1638871254.84375
1016,-70.8,1638871254.859375
1017,-74.36,1638871254.875
1018,-75.77,1638871254.890625
1019,-75.5,1638871254.90625
1020,-74.29,1638871254.921875
1021,-72.76,1638871254.9375
1022,-71.04,1638871254.953125
1023,-68.78,1638871254.96875
1024,-65.41,1638871254.984375
1025,-60.55,1638871255.0
1026,-54.3,1638871255.015625
1027,-47.22,1638871255.03125
1028,-40.03,1638871255.046875
1029,-33.33,1638871255.0625
1030,-27.37,1638871255.078125
1031,-22.12,1638871255.09375
1032,-17.48,1638871255.109375
1033,-13.32,1638871255.125
1034,-9.69,1638871255.140625
1035,-6.67,1638871255.15625
1036,-4.25,1638871255.171875
1037,-2.31,1638871255.1875
1038,-0.58,1638871255.203125
1039,1.17,1638871255.21875
1040,3.03,1638871255.234375
1041,4.9,1638871255.25
1042,6.56,1638871255.265625
1043,7.79,1638871255.28125
1044,8.49,1638871255.296875
1045,8.75,1638871255.3125
1046,8.77,1638871255.328125
1047,8.84,1638871255.34375
1048,9.17,1638871255.359375
1049,9.86,1638871255.375
1050,10.85,1638871255.390625
1051,11.96,1638871255.40625
1052,12.93,1638871255.421875
1053,13.54,1638871255.4375
1054,13.59,1638871255.453125
1055,12.96,1638871255.46875
1056,11.66,1638871255.484375
1057,9.8,1638871255.5
1058,7.6,1638871255.515625
1059,5.4,1638871255.53125
1060,3.5,1638871255.546875
1061,2.05,1638871255.5625
1062,1.05,1638871255.578125
1063,0.29,1638871255.59375
1064,-0.54,1638871255.609375
1065,-1.69,1638871255.625
1066,-3.29,1638871255.640625
1067,-5.31,1638871255.65625
1068,-7.57,1638871255.671875
1069,-9.89,1638871255.6875
1070,-12.11,1638871255.703125
1071,-14.23,1638871255.71875
1072,-16.33,1638871255.734375
1073,-18.62,1638871255.75
1074,-21.24,1638871255.765625
1075,-24.22,1638871255.78125
1076,-27.41,1638871255.796875
1077,-30.46,1638871255.8125
1078,-33.08,1638871255.828125
1079,-35.06,1638871255.84375
1080,-36.48,1638871255.859375
1081,-37.46,1638871255.875
1082,-38.12,1638871255.890625
1083,-38.32,1638871255.90625
1084,-37.73,1638871255.921875
1085,-36.0,1638871255.9375
1086,-32.98,1638871255.953125
1087,-28.9,1638871255.96875
1088,-24.29,1638871255.984375
1089,-19.78,1638871256.0
1090,-15.88,1638871256.015625
1091,-12.83,1638871256.03125
1092,-10.56,1638871256.046875
1093,-8.81,1638871256.0625
1094,-7.23,1638871256.078125
1095,-5.46,1638871256.09375
1096,-3.34,1638871256.109375
1097,-0.85,1638871256.125
1098,1.82,1638871256.140625
1099,4.3,1638871256.15625
1100,6.23,1638871256.171875
1101,7.5,1638871256.1875
1102,8.19,1638871256.203125
1103,8.71,1638871256.21875
1104,9.63,1638871256.234375
1105,11.4,1638871256.25
1106,14.41,1638871256.265625
1107,18.94,1638871256.28125
1108,25.16,1638871256.296875
1109,32.95,1638871256.3125
1110,41.54,1638871256.328125
1111,49.3,1638871256.34375
1112,54.13,1638871256.359375
1113,54.12,1638871256.375
1114,48.61,1638871256.390625
1115,38.64,1638871256.40625
1116,26.73,1638871256.421875
1117,15.84,1638871256.4375
1118,8.13,1638871256.453125
1119,4.18,1638871256.46875
1120,2.98,1638871256.484375
1121,2.87,1638871256.5
1122,2.41,1638871256.515625
1123,1.06,1638871256.53125
1124,-0.88,1638871256.546875
1125,-2.87,1638871256.5625
1126,-4.61,1638871256.578125
1127,-6.3,1638871256.59375
1128,-8.45,1638871256.609375
1129,-11.42,1638871256.625
1130,-15.18,1638871256.640625
1131,-19.35,1638871256.65625
1132,-23.35,1638871256.671875
1133,-26.75,1638871256.6875
1134,-29.59,1638871256.703125
1135,-32.21,1638871256.71875
1136,-35.02,1638871256.734375
1137,-38.16,1638871256.75
1138,-41.17,1638871256.765625
1139,-43.09,1638871256.78125
1140,-42.77,1638871256.796875
1141,-39.37,1638871256.8125
1142,-32.81,1638871256.828125
1143,-23.85,1638871256.84375
1144,-13.87,1638871256.859375
1145,-4.36,1638871256.875
1146,3.53,1638871256.890625
1147,9.37,1638871256.90625
1148,13.37,1638871256.921875
1149,16.28,1638871256.9375
1150,19.0,1638871256.953125
1151,22.28,1638871256.96875
1152,26.5,1638871256.984375
1153,31.6,1638871257.0
1154,37.18,1638871257.015625
1155,42.69,1638871257.03125
1156,47.62,1638871257.046875
1157,51.61,1638871257.0625
1158,54.52,1638871257.078125
1159,56.31,1638871257.09375
1160,57.06,1638871257.109375
1161,56.92,1638871257.125
1162,56.12,1638871257.140625
1163,55.01,1638871257.15625
1164,54.04,1638871257.171875
1165,53.62,1638871257.1875
1166,54.01,1638871257.203125
1167,55.18,1638871257.21875
1168,56.8,1638871257.234375
1169,58.32,1638871257.25
1170,59.24,1638871257.265625
1171,59.22,1638871257.28125
1172,58.26,1638871257.296875
1173,56.68,1638871257.3125
1174,54.85,1638871257.328125
1175,53.05,1638871257.34375
1176,51.26,1638871257.359375
1177,49.19,1638871257.375
1178,46.49,1638871257.390625
1179,42.99,1638871257.40625
1180,38.93,1638871257.421875
1181,34.84,1638871257.4375
1182,31.33,1638871257.453125
1183,28.78,1638871257.46875
1184,27.08,1638871257.484375
1185,25.69,1638871257.5
1186,23.88,1638871257.515625
1187,21.09,1638871257.53125
1188,17.13,1638871257.546875
1189,12.2,1638871257.5625
1190,6.77,1638871257.578125
1191,1.34,1638871257.59375
1192,-3.73,1638871257.609375
1193,-8.25,1638871257.625
1194,-12.12,1638871257.640625
1195,-15.29,1638871257.65625
1196,-17.82,1638871257.671875
1197,-19.99,1638871257.6875
1198,-22.35,1638871257.703125
1199,-25.5,1638871257.71875
1200,-29.78,1638871257.734375
1201,-35.03,1638871257.75
1202,-40.4,1638871257.765625
1203,-44.71,1638871257.78125
1204,-46.88,1638871257.796875
1205,-46.44,1638871257.8125
1206,-43.72,1638871257.828125
1207,-39.69,1638871257.84375
1208,-35.48,1638871257.859375
1209,-31.94,1638871257.875
1210,-29.34,1638871257.890625
1211,-27.49,1638871257.90625
1212,-25.95,1638871257.921875
1213,-24.41,1638871257.9375
1214,-22.89,1638871257.953125
1215,-21.63,1638871257.96875
1216,-20.96,1638871257.984375
1217,-21.06,1638871258.0
1218,-21.81,1638871258.015625
1219,-22.88,1638871258.03125
1220,-23.81,1638871258.046875
1221,-24.34,1638871258.0625
1222,-24.44,1638871258.078125
1223,-24.36,1638871258.09375
1224,-24.47,1638871258.109375
1225,-25.12,1638871258.125
1226,-26.46,1638871258.140625
1227,-28.45,1638871258.15625
1228,-30.93,1638871258.171875
1229,-33.73,1638871258.1875
1230,-36.75,1638871258.203125
1231,-39.98,1638871258.21875
1232,-43.46,1638871258.234375
1233,-47.14,1638871258.25
1234,-50.84,1638871258.265625
1235,-54.19,1638871258.28125
1236,-56.65,1638871258.296875
1237,-57.71,1638871258.3125
1238,-57.01,1638871258.328125
1239,-54.53,1638871258.34375
1240,-50.57,1638871258.359375
1241,-45.7,1638871258.375
1242,-40.51,1638871258.390625
1243,-35.41,1638871258.40625
1244,-30.6,1638871258.421875
1245,-26.06,1638871258.4375
1246,-21.74,1638871258.453125
1247,-17.65,1638871258.46875
1248,-14.04,1638871258.484375
1249,-11.28,1638871258.5
1250,-9.72,1638871258.515625
1251,-9.65,1638871258.53125
1252,-11.14,1638871258.546875
1253,-14.09,1638871258.5625
1254,-18.22,1638871258.578125
1255,-23.12,1638871258.59375
1256,-28.13,1638871258.609375
1257,-32.43,1638871258.625
1258,-35.01,1638871258.640625
1259,-34.95,1638871258.65625
1260,-31.65,1638871258.671875
1261,-25.07,1638871258.6875
1262,-15.83,1638871258.703125
1263,-5.01,1638871258.71875
1264,6.08,1638871258.734375
1265,16.28,1638871258.75
1266,24.84,1638871258.765625
1267,31.47,1638871258.78125
1268,36.28,1638871258.796875
1269,39.62,1638871258.8125
1270,41.93,1638871258.828125
1271,43.56,1638871258.84375
1272,44.82,1638871258.859375
1273,45.91,1638871258.875
1274,46.95,1638871258.890625
1275,48.04,1638871258.90625
1276,49.19,1638871258.921875
1277,50.34,1638871258.9375
1278,51.33,1638871258.953125
1279,51.98,1638871258.96875
1280,52.14,1638871258.984375
1281,51.79,1638871259.0
1282,51.07,1638871259.015625
1283,50.21,1638871259.03125
1284,49.38,1638871259.046875
1285,48.64,1638871259.0625
1286,47.88,1638871259.078125
1287,46.89,1638871259.09375
1288,45.46,1638871259.109375
1289,43.47,1638871259.125
1290,40.91,1638871259.140625
1291,37.9,1638871259.15625
1292,34.6,1638871259.171875
1293,31.16,1638871259.1875
1294,27.7,1638871259.203125
1295,24.24,1638871259.21875
1296,20.75,1638871259.234375
1297,17.12,1638871259.25
1298,13.22,1638871259.265625
1299,8.98,1638871259.28125
1300,4.44,1638871259.296875
1301,-0.27,1638871259.3125
1302,-4.94,1638871259.328125
1303,-9.41,1638871259.34375
1304,-13.57,1638871259.359375
1305,-17.45,1638871259.375
1306,-21.21,1638871259.390625
1307,-25.09,1638871259.40625
1308,-29.37,1638871259.421875
1309,-34.33,1638871259.4375
1310,-40.04,1638871259.453125
1311,-46.36,1638871259.46875
1312,-52.85,1638871259.484375
1313,-58.89,1638871259.5
1314,-63.71,1638871259.515625
1315,-66.71,1638871259.53125
1316,-67.51,1638871259.546875
1317,-66.12,1638871259.5625
1318,-62.86,1638871259.578125
1319,-58.27,1638871259.59375
1320,-53.01,1638871259.609375
1321,-47.73,1638871259.625
1322,-42.93,1638871259.640625
1323,-38.94,1638871259.65625
1324,-35.87,1638871259.671875
1325,-33.63,1638871259.6875
1326,-31.98,1638871259.703125
1327,-30.68,1638871259.71875
1328,-29.57,1638871259.734375
1329,-28.58,1638871259.75
1330,-27.8,1638871259.765625
1331,-27.3,1638871259.78125
1332,-27.15,1638871259.796875
1333,-27.35,1638871259.8125
1334,-27.87,1638871259.828125
1335,-28.69,1638871259.84375
1336,-29.72,1638871259.859375
1337,-30.77,1638871259.875
1338,-31.46,1638871259.890625
1339,-31.24,1638871259.90625
1340,-29.51,1638871259.921875
1341,-25.9,1638871259.9375
1342,-20.38,1638871259.953125
1343,-13.38,1638871259.96875
1344,-5.62,1638871259.984375
1345,2.1,1638871260.0
1346,9.13,1638871260.015625
1347,15.13,1638871260.03125
1348,19.97,1638871260.046875
1349,23.67,1638871260.0625
1350,26.22,1638871260.078125
1351,27.55,1638871260.09375
1352,27.6,1638871260.109375
1353,26.36,1638871260.125
1354,24.0,1638871260.140625
1355,20.81,1638871260.15625
1356,17.19,1638871260.171875
1357,13.52,1638871260.1875
1358,10.09,1638871260.203125
1359,7.1,1638871260.21875
1360,4.58,1638871260.234375
1361,2.51,1638871260.25
1362,0.83,1638871260.265625
1363,-0.43,1638871260.28125
1364,-1.2,1638871260.296875
1365,-1.37,1638871260.3125
1366,-0.85,1638871260.328125
1367,0.2,1638871260.34375
1368,1.34,1638871260.359375
1369,1.78,1638871260.375
1370,0.72,1638871260.390625
1371,-2.44,1638871260.40625
1372,-7.69,1638871260.421875
1373,-14.36,1638871260.4375
1374,-21.15,1638871260.453125
1375,-26.52,1638871260.46875
1376,-29.0,1638871260.484375
1377,-27.45,1638871260.5
1378,-21.42,1638871260.515625
1379,-11.41,1638871260.53125
1380,1.02,1638871260.546875
1381,13.37,1638871260.5625
1382,22.85,1638871260.578125
1383,27.28,1638871260.59375
1384,25.98,1638871260.609375
1385,20.12,1638871260.625
1386,12.23,1638871260.640625
1387,5.23,1638871260.65625
1388,1.25,1638871260.671875
1389,1.01,1638871260.6875
1390,3.95,1638871260.703125
1391,8.78,1638871260.71875
1392,14.27,1638871260.734375
1393,19.58,1638871260.75
1394,24.3,1638871260.765625
1395,28.16,1638871260.78125
1396,30.96,1638871260.796875
1397,32.51,1638871260.8125
1398,32.91,1638871260.828125
1399,32.56,1638871260.84375
1400,32.11,1638871260.859375
1401,32.16,1638871260.875
1402,33.08,1638871260.890625
1403,34.92,1638871260.90625
1404,37.38,1638871260.921875
1405,40.0,1638871260.9375
1406,42.24,1638871260.953125
1407,43.69,1638871260.96875
1408,44.05,1638871260.984375
1409,43.25,1638871261.0
1410,41.43,1638871261.015625
1411,38.88,1638871261.03125
1412,35.98,1638871261.046875
1413,33.03,1638871261.0625
1414,30.21,1638871261.078125
1415,27.51,1638871261.09375
1416,24.81,1638871261.109375
1417,21.89,1638871261.125
1418,18.58,1638871261.140625
1419,14.76,1638871261.15625
1420,10.41,1638871261.171875
1421,5.59,1638871261.1875
1422,0.37,1638871261.203125
1423,-5.15,1638871261.21875
1424,-10.84,1638871261.234375
1425,-16.53,1638871261.25
1426,-22.13,1638871261.265625
1427,-27.64,1638871261.28125
1428,-33.28,1638871261.296875
1429,-39.35,1638871261.3125
1430,-46.12,1638871261.328125
1431,-53.6,1638871261.34375
1432,-61.35,1638871261.359375
1433,-68.48,1638871261.375
1434,-73.79,1638871261.390625
1435,-76.08,1638871261.40625
1436,-74.5,1638871261.421875
1437,-68.87,1638871261.4375
1438,-59.73,1638871261.453125
1439,-48.23,1638871261.46875
1440,-35.77,1638871261.484375
1441,-23.71,1638871261.5
1442,-12.95,1638871261.515625
1443,-3.86,1638871261.53125
1444,3.71,1638871261.546875
1445,10.16,1638871261.5625
1446,15.93,1638871261.578125
1447,21.26,1638871261.59375
1448,26.17,1638871261.609375
1449,30.49,1638871261.625
1450,34.04,1638871261.640625
1451,36.68,1638871261.65625
1452,38.41,1638871261.671875
1453,39.42,1638871261.6875
1454,39.98,1638871261.703125
1455,40.36,1638871261.71875
1456,40.78,1638871261.734375
1457,41.33,1638871261.75
1458,42.02,1638871261.765625
1459,42.85,1638871261.78125
1460,43.89,1638871261.796875
1461,45.18,1638871261.8125
1462,46.79,1638871261.828125
1463,48.62,1638871261.84375
1464,50.39,1638871261.859375
1465,51.68,1638871261.875
1466,52.03,1638871261.890625
1467,51.15,1638871261.90625
1468,49.0,1638871261.921875
1469,45.8,1638871261.9375
1470,41.94,1638871261.953125
1471,37.81,1638871261.96875
1472,33.69,1638871261.984375
1473,29.62,1638871262.0
1474,25.49,1638871262.015625
1475,21.07,1638871262.03125
1476,16.22,1638871262.046875
1477,10.88,1638871262.0625
1478,5.27,1638871262.078125
1479,-0.3,1638871262.09375
1480,-5.42,1638871262.109375
1481,-9.75,1638871262.125
1482,-13.16,1638871262.140625
1483,-15.76,1638871262.15625
1484,-18.0,1638871262.171875
1485,-20.5,1638871262.1875
1486,-23.94,1638871262.203125
1487,-28.79,1638871262.21875
1488,-35.09,1638871262.234375
1489,-42.3,1638871262.25
1490,-49.33,1638871262.265625
1491,-54.74,1638871262.28125
1492,-57.19,1638871262.296875
1493,-55.78,1638871262.3125
1494,-50.29,1638871262.328125
1495,-41.36,1638871262.34375
1496,-30.16,1638871262.359375
1497,-18.11,1638871262.375
1498,-6.45,1638871262.390625
1499,4.01,1638871262.40625
1500,13.09,1638871262.421875
1501,21.12,1638871262.4375
1502,28.67,1638871262.453125
1503,36.09,1638871262.46875
1504,43.21,1638871262.484375
1505,49.31,1638871262.5
1506,53.42,1638871262.515625
1507,54.81,1638871262.53125
1508,53.37,1638871262.546875
1509,49.81,1638871262.5625
1510,45.29,1638871262.578125
1511,40.96,1638871262.59375
1512,37.56,1638871262.609375
1513,35.23,1638871262.625
1514,33.71,1638871262.640625
1515,32.65,1638871262.65625
1516,31.96,1638871262.671875
1517,31.8,1638871262.6875
1518,32.37,1638871262.703125
1519,33.73,1638871262.71875
1520,35.58,1638871262.734375
1521,37.36,1638871262.75
1522,38.52,1638871262.765625
1523,38.76,1638871262.78125
1524,38.08,1638871262.796875
1525,36.82,1638871262.8125
1526,35.35,1638871262.828125
1527,33.9,1638871262.84375
1528,32.41,1638871262.859375
1529,30.57,1638871262.875
1530,28.08,1638871262.890625
1531,24.82,1638871262.90625
1532,21.01,1638871262.921875
1533,17.03,1638871262.9375
1534,13.35,1638871262.953125
1535,10.2,1638871262.96875
1536,7.56,1638871262.984375
1537,5.13,1638871263.0
1538,2.48,1638871263.015625
1539,-0.78,1638871263.03125
1540,-4.87,1638871263.046875
1541,-9.75,1638871263.0625
1542,-15.2,1638871263.078125
1543,-20.81,1638871263.09375
1544,-26.17,1638871263.109375
1545,-30.93,1638871263.125
1546,-34.97,1638871263.140625
1547,-38.41,1638871263.15625
1548,-41.59,1638871263.171875
1549,-45.03,1638871263.1875
1550,-49.22,1638871263.203125
1551,-54.53,1638871263.21875
1552,-60.93,1638871263.234375
1553,-67.97,1638871263.25
1554,-74.7,1638871263.265625
1555,-79.91,1638871263.28125
1556,-82.41,1638871263.296875
1557,-81.41,1638871263.3125
1558,-76.72,1638871263.328125
1559,-68.78,1638871263.34375
1560,-58.58,1638871263.359375
1561,-47.38,1638871263.375
1562,-36.34,1638871263.390625
1563,-26.37,1638871263.40625
1564,-17.87,1638871263.421875
1565,-10.78,1638871263.4375
1566,-4.7,1638871263.453125
1567,0.86,1638871263.46875
1568,6.33,1638871263.484375
1569,11.91,1638871263.5
1570,17.56,1638871263.515625
1571,23.05,1638871263.53125
1572,28.1,1638871263.546875
1573,32.39,1638871263.5625
1574,35.69,1638871263.578125
1575,37.87,1638871263.59375
1576,38.96,1638871263.609375
1577,39.16,1638871263.625
1578,38.81,1638871263.640625
1579,38.36,1638871263.65625
1580,38.18,1638871263.671875
1581,38.46,1638871263.6875
1582,39.23,1638871263.703125
1583,40.31,1638871263.71875
1584,41.41,1638871263.734375
1585,42.26,1638871263.75
1586,42.66,1638871263.765625
1587,42.51,1638871263.78125
1588,41.92,1638871263.796875
1589,41.05,1638871263.8125
1590,40.03,1638871263.828125
1591,38.91,1638871263.84375
1592,37.56,1638871263.859375
1593,35.73,1638871263.875
1594,33.23,1638871263.890625
1595,30.01,1638871263.90625
1596,26.19,1638871263.921875
1597,22.08,1638871263.9375
1598,17.96,1638871263.953125
1599,14.0,1638871263.96875
1600,10.2,1638871263.984375
1601,6.42,1638871264.0
1602,2.45,1638871264.015625
1603,-1.84,1638871264.03125
1604,-6.46,1638871264.046875
1605,-11.32,1638871264.0625
1606,-16.24,1638871264.078125
1607,-21.04,1638871264.09375
1608,-25.62,1638871264.109375
1609,-30.05,1638871264.125
1610,-34.58,1638871264.140625
1611,-39.56,1638871264.15625
1612,-45.32,1638871264.171875
1613,-51.93,1638871264.1875
1614,-59.15,1638871264.203125
1615,-66.28,1638871264.21875
1616,-72.34,1638871264.234375
1617,-76.21,1638871264.25
1618,-76.95,1638871264.265625
1619,-74.06,1638871264.28125
1620,-67.62,1638871264.296875
1621,-58.33,1638871264.3125
1622,-47.32,1638871264.328125
1623,-35.83,1638871264.34375
1624,-24.95,1638871264.359375
1625,-15.37,1638871264.375
1626,-7.3,1638871264.390625
1627,-0.61,1638871264.40625
1628,5.01,1638871264.421875
1629,9.9,1638871264.4375
1630,14.3,1638871264.453125
1631,18.35,1638871264.46875
1632,22.06,1638871264.484375
1633,25.35,1638871264.5
1634,28.09,1638871264.515625
1635,30.18,1638871264.53125
1636,31.59,1638871264.546875
1637,32.41,1638871264.5625
1638,32.86,1638871264.578125
1639,33.14,1638871264.59375
1640,33.47,1638871264.609375
1641,33.92,1638871264.625
1642,34.52,1638871264.640625
1643,35.22,1638871264.65625
1644,35.95,1638871264.671875
1645,36.69,1638871264.6875
1646,37.37,1638871264.703125
1647,37.84,1638871264.71875
1648,37.9,1638871264.734375
1649,37.33,1638871264.75
1650,35.96,1638871264.765625
1651,33.72,1638871264.78125
1652,30.72,1638871264.796875
1653,27.18,1638871264.8125
1654,23.45,1638871264.828125
1655,19.84,1638871264.84375
1656,16.59,1638871264.859375
1657,13.7,1638871264.875
1658,10.94,1638871264.890625
1659,7.98,1638871264.90625
1660,4.56,1638871264.921875
1661,0.65,1638871264.9375
1662,-3.56,1638871264.953125
1663,-7.65,1638871264.96875
1664,-11.28,1638871264.984375
1665,-14.31,1638871265.0
1666,-16.89,1638871265.015625
1667,-19.42,1638871265.03125
1668,-22.36,1638871265.046875
1669,-26.09,1638871265.0625
1670,-30.84,1638871265.078125
1671,-36.62,1638871265.09375
1672,-43.24,1638871265.109375
1673,-50.33,1638871265.125
1674,-57.28,1638871265.140625
1675,-63.29,1638871265.15625
1676,-67.46,1638871265.171875
1677,-68.97,1638871265.1875
1678,-67.32,1638871265.203125
1679,-62.51,1638871265.21875
1680,-55.07,1638871265.234375
1681,-45.92,1638871265.25
1682,-36.2,1638871265.265625
1683,-26.9,1638871265.28125
1684,-18.67,1638871265.296875
1685,-11.71,1638871265.3125
1686,-5.87,1638871265.328125
1687,-0.83,1638871265.34375
1688,3.72,1638871265.359375
1689,7.98,1638871265.375
1690,12.0,1638871265.390625
1691,15.78,1638871265.40625
1692,19.3,1638871265.421875
1693,22.58,1638871265.4375
1694,25.55,1638871265.453125
1695,28.15,1638871265.46875
1696,30.24,1638871265.484375
1697,31.69,1638871265.5
1698,32.52,1638871265.515625
1699,32.85,1638871265.53125
1700,32.94,1638871265.546875
1701,33.07,1638871265.5625
1702,33.42,1638871265.578125
1703,34.09,1638871265.59375
1704,34.99,1638871265.609375
1705,35.88,1638871265.625
1706,36.46,1638871265.640625
1707,36.49,1638871265.65625
1708,35.83,1638871265.671875
1709,34.52,1638871265.6875
1710,32.7,1638871265.703125
1711,30.55,1638871265.71875
1712,28.21,1638871265.734375
1713,25.73,1638871265.75
1714,23.1,1638871265.765625
1715,20.3,1638871265.78125
1716,17.32,1638871265.796875
1717,14.13,1638871265.8125
1718,10.73,1638871265.828125
1719,7.1,1638871265.84375
1720,3.24,1638871265.859375
1721,-0.81,1638871265.875
1722,-4.91,1638871265.890625
1723,-8.94,1638871265.90625
1724,-12.77,1638871265.921875
1725,-16.34,1638871265.9375
1726,-19.68,1638871265.953125
1727,-22.88,1638871265.96875
1728,-26.01,1638871265.984375
1729,-29.18,1638871266.0
1730,-32.43,1638871266.015625
1731,-35.76,1638871266.03125
1732,-39.06,1638871266.046875
1733,-42.13,1638871266.0625
1734,-44.82,1638871266.078125
1735,-47.03,1638871266.09375
1736,-48.89,1638871266.109375
1737,-50.69,1638871266.125
1738,-52.75,1638871266.140625
1739,-55.34,1638871266.15625
1740,-58.43,1638871266.171875
1741,-61.67,1638871266.1875
1742,-64.39,1638871266.203125
1743,-65.73,1638871266.21875
1744,-64.83,1638871266.234375
1745,-61.13,1638871266.25
1746,-54.53,1638871266.265625
1747,-45.53,1638871266.28125
1748,-35.09,1638871266.296875
1749,-24.43,1638871266.3125
1750,-14.62,1638871266.328125
1751,-6.4,1638871266.34375
1752,-0.06,1638871266.359375
1753,4.5,1638871266.375
1754,7.59,1638871266.390625
1755,9.62,1638871266.40625
1756,11.02,1638871266.421875
1757,12.18,1638871266.4375
1758,13.5,1638871266.453125
1759,15.18,1638871266.46875
1760,17.21,1638871266.484375
1761,19.29,1638871266.5
1762,20.96,1638871266.515625
1763,21.78,1638871266.53125
1764,21.53,1638871266.546875
1765,20.3,1638871266.5625
1766,18.44,1638871266.578125
1767,16.39,1638871266.59375
1768,14.5,1638871266.609375
1769,12.86,1638871266.625
1770,11.3,1638871266.640625
1771,9.46,1638871266.65625
1772,6.89,1638871266.671875
1773,3.28,1638871266.6875
1774,-1.46,1638871266.703125
1775,-7.12,1638871266.71875
1776,-13.3,1638871266.734375
1777,-19.52,1638871266.75
1778,-25.44,1638871266.765625
1779,-30.96,1638871266.78125
1780,-36.3,1638871266.796875
1781,-41.91,1638871266.8125
1782,-48.29,1638871266.828125
1783,-55.71,1638871266.84375
1784,-64.05,1638871266.859375
1785,-72.75,1638871266.875
1786,-80.92,1638871266.890625
1787,-87.64,1638871266.90625
1788,-92.3,1638871266.921875
1789,-94.83,1638871266.9375
1790,-95.68,1638871266.953125
1791,-95.63,1638871266.96875
1792,-95.48,1638871266.984375
1793,-95.72,1638871267.0
1794,-96.52,1638871267.015625
1795,-97.67,1638871267.03125
1796,-98.82,1638871267.046875
1797,-99.51,1638871267.0625
1798,-99.3,1638871267.078125
1799,-97.7,1638871267.09375
1800,-94.31,1638871267.109375
1801,-88.88,1638871267.125
1802,-81.51,1638871267.140625
1803,-72.63,1638871267.15625
1804,-62.98,1638871267.171875
1805,-53.44,1638871267.1875
1806,-44.65,1638871267.203125
1807,-36.92,1638871267.21875
1808,-30.1,1638871267.234375
1809,-23.62,1638871267.25
1810,-16.64,1638871267.265625
1811,-7.99,1638871267.28125
1812,3.7,1638871267.296875
1813,19.9,1638871267.3125
1814,41.88,1638871267.328125
1815,70.22,1638871267.34375
1816,104.29,1638871267.359375
1817,142.08,1638871267.375
1818,180.55,1638871267.390625
1819,216.6,1638871267.40625
1820,248.19,1638871267.421875
1821,275.16,1638871267.4375
1822,299.32,1638871267.453125
1823,323.68,1638871267.46875
1824,351.22,1638871267.484375
1825,383.79,1638871267.5
1826,421.54,1638871267.515625
1827,462.88,1638871267.53125
1828,504.79,1638871267.546875
1829,543.25,1638871267.5625
1830,573.78,1638871267.578125
1831,592.13,1638871267.59375
1832,595.22,1638871267.609375
1833,581.99,1638871267.625
1834,553.93,1638871267.640625
1835,514.76,1638871267.65625
1836,469.37,1638871267.671875
1837,422.4,1638871267.6875
1838,376.98,1638871267.703125
1839,334.3,1638871267.71875
1840,293.93,1638871267.734375
1841,254.61,1638871267.75
1842,215.13,1638871267.765625
1843,174.76,1638871267.78125
1844,133.43,1638871267.796875
1845,91.55,1638871267.8125
1846,49.78,1638871267.828125
1847,8.72,1638871267.84375
1848,-31.22,1638871267.859375
1849,-69.95,1638871267.875
1850,-107.73,1638871267.890625
1851,-144.86,1638871267.90625
1852,-181.53,1638871267.921875
1853,-217.59,1638871267.9375
1854,-252.66,1638871267.953125
1855,-286.31,1638871267.96875
1856,-318.27,1638871267.984375
1857,-348.74,1638871268.0
1858,-378.2,1638871268.015625
1859,-407.54,1638871268.03125
1860,-437.94,1638871268.046875
1861,-470.99,1638871268.0625
1862,-508.33,1638871268.078125
1863,-550.8,1638871268.09375
1864,-597.27,1638871268.109375
1865,-643.83,1638871268.125
1866,-683.94,1638871268.140625
1867,-710.01,1638871268.15625
1868,-715.88,1638871268.171875
1869,-699.09,1638871268.1875
1870,-661.83,1638871268.203125
1871,-610.24,1638871268.21875
1872,-552.18,1638871268.234375
1873,-494.88,1638871268.25
1874,-443.34,1638871268.265625
1875,-399.85,1638871268.28125
1876,-364.6,1638871268.296875
1877,-336.47,1638871268.3125
1878,-313.54,1638871268.328125
1879,-293.52,1638871268.34375
1880,-273.85,1638871268.359375
1881,-252.3,1638871268.375
1882,-227.48,1638871268.390625
1883,-199.23,1638871268.40625
1884,-168.31,1638871268.421875
1885,-135.71,1638871268.4375
1886,-101.83,1638871268.453125
1887,-65.98,1638871268.46875
1888,-26.53,1638871268.484375
1889,18.09,1638871268.5
1890,68.41,1638871268.515625
1891,123.2,1638871268.53125
1892,179.37,1638871268.546875
1893,233.04,1638871268.5625
1894,280.93,1638871268.578125
1895,321.73,1638871268.59375
1896,356.99,1638871268.609375
1897,390.83,1638871268.625
1898,428.5,1638871268.640625
1899,474.15,1638871268.65625
1900,528.26,1638871268.671875
1901,586.08,1638871268.6875
1902,638.05,1638871268.703125
1903,672.21,1638871268.71875
1904,677.94,1638871268.734375
1905,649.59,1638871268.75
1906,588.75,1638871268.765625
1907,504.55,1638871268.78125
1908,411.6,1638871268.796875
1909,326.43,1638871268.8125
1910,262.94,1638871268.828125
1911,228.54,1638871268.84375
1912,222.04,1638871268.859375
1913,234.33,1638871268.875
1914,251.62,1638871268.890625
1915,260.04,1638871268.90625
1916,250.17,1638871268.921875
1917,219.45,1638871268.9375
1918,171.96,1638871268.953125
1919,115.79,1638871268.96875
1920,59.48,1638871268.984375
1921,9.14,1638871269.0
1922,-32.69,1638871269.015625
1923,-66.4,1638871269.03125
1924,-94.08,1638871269.046875
1925,-118.28,1638871269.0625
1926,-141.39,1638871269.078125
1927,-165.55,1638871269.09375
1928,-192.79,1638871269.109375
1929,-225.15,1638871269.125
1930,-264.44,1638871269.140625
1931,-311.18,1638871269.15625
1932,-363.42,1638871269.171875
1933,-415.92,1638871269.1875
1934,-460.66,1638871269.203125
1935,-489.2,1638871269.21875
1936,-495.62,1638871269.234375
1937,-478.89,1638871269.25
1938,-443.32,1638871269.265625
1939,-396.46,1638871269.28125
1940,-345.78,1638871269.296875
1941,-295.64,1638871269.3125
1942,-246.55,1638871269.328125
1943,-196.8,1638871269.34375
1944,-145.63,1638871269.359375
1945,-95.47,1638871269.375
1946,-51.8,1638871269.390625
1947,-20.73,1638871269.40625
1948,-5.59,1638871269.421875
1949,-4.92,1638871269.4375
1950,-13.16,1638871269.453125
1951,-23.53,1638871269.46875
1952,-31.32,1638871269.484375
1953,-35.67,1638871269.5
1954,-39.28,1638871269.515625
1955,-46.29,1638871269.53125
1956,-59.96,1638871269.546875
1957,-81.15,1638871269.5625
1958,-108.31,1638871269.578125
1959,-138.25,1638871269.59375
1960,-167.13,1638871269.609375
1961,-191.44,1638871269.625
1962,-208.57,1638871269.640625
1963,-217.36,1638871269.65625
1964,-218.22,1638871269.671875
1965,-212.77,1638871269.6875
1966,-202.58,1638871269.703125
1967,-188.11,1638871269.71875
1968,-168.28,1638871269.734375
1969,-141.58,1638871269.75
1970,-108.25,1638871269.765625
1971,-72.25,1638871269.78125
1972,-41.36,1638871269.796875
1973,-24.76,1638871269.8125
1974,-28.92,1638871269.828125
1975,-54.1,1638871269.84375
1976,-93.38,1638871269.859375
1977,-135.16,1638871269.875
1978,-167.76,1638871269.890625
1979,-183.98,1638871269.90625
1980,-183.18,1638871269.921875
1981,-170.21,1638871269.9375
1982,-151.91,1638871269.953125
1983,-133.78,1638871269.96875
1984,-118.07,1638871269.984375
1985,-104.52,1638871270.0
1986,-92.26,1638871270.015625
1987,-81.72,1638871270.03125
1988,-75.0,1638871270.046875
1989,-74.7,1638871270.0625
1990,-82.24,1638871270.078125
1991,-96.68,1638871270.09375
1992,-114.84,1638871270.109375
1993,-132.65,1638871270.125
1994,-146.75,1638871270.140625
1995,-155.75,1638871270.15625
1996,-160.33,1638871270.171875
1997,-162.45,1638871270.1875
1998,-164.09,1638871270.203125
1999,-166.14,1638871270.21875
2000,-168.03,1638871270.234375
2001,-168.13,1638871270.25
2002,-164.71,1638871270.265625
2003,-156.9,1638871270.28125
2004,-145.24,1638871270.296875
2005,-131.5,1638871270.3125
2006,-117.9,1638871270.328125
2007,-106.19,1638871270.34375
2008,-96.9,1638871270.359375
2009,-89.24,1638871270.375
2010,-81.5,1638871270.390625
2011,-71.82,1638871270.40625
2012,-58.96,1638871270.421875
2013,-42.56,1638871270.4375
2014,-22.98,1638871270.453125
2015,-0.74,1638871270.46875
2016,24.1,1638871270.484375
2017,52.25,1638871270.5
2018,85.05,1638871270.515625
2019,124.07,1638871270.53125
2020,170.63,1638871270.546875
2021,225.49,1638871270.5625
2022,288.63,1638871270.578125
2023,359.17,1638871270.59375
2024,435.09,1638871270.609375
2025,513.08,1638871270.625
2026,588.62,1638871270.640625
2027,656.94,1638871270.65625
2028,713.36,1638871270.671875
2029,753.84,1638871270.6875
2030,775.69,1638871270.703125
2031,777.95,1638871270.71875
2032,761.27,1638871270.734375
2033,727.41,1638871270.75
2034,678.55,1638871270.765625
2035,616.95,1638871270.78125
2036,545.32,1638871270.796875
2037,466.36,1638871270.8125
2038,382.75,1638871270.828125
2039,297.33,1638871270.84375
2040,213.2,1638871270.859375
2041,133.52,1638871270.875
2042,61.14,1638871270.890625
2043,-1.63,1638871270.90625
2044,-52.86,1638871270.921875
2045,-89.49,1638871270.9375
2046,-108.86,1638871270.953125
2047,-109.75,1638871270.96875
2048,-93.34,1638871270.984375
2049,-63.4,1638871271.0
2050,-26.06,1638871271.015625
2051,11.23,1638871271.03125
2052,41.43,1638871271.046875
2053,59.94,1638871271.0625
2054,68.85,1638871271.078125
2055,72.26,1638871271.09375
2056,73.39,1638871271.109375
2057,73.22,1638871271.125
2058,71.28,1638871271.140625
2059,67.04,1638871271.15625
2060,60.57,1638871271.171875
2061,52.83,1638871271.1875
2062,45.67,1638871271.203125
2063,47.72,1638871271.21875
2064,64.24,1638871271.234375
2065,93.6,1638871271.25
2066,128.27,1638871271.265625
2067,160.25,1638871271.28125
2068,185.37,1638871271.296875
2069,204.06,1638871271.3125
2070,219.66,1638871271.328125
2071,237.02,1638871271.34375
2072,271.19,1638871271.359375
2073,331.2,1638871271.375
2074,414.72,1638871271.390625
2075,509.2,1638871271.40625
2076,599.46,1638871271.421875
2077,673.87,1638871271.4375
2078,726.06,1638871271.453125
2079,753.82,1638871271.46875
2080,759.37,1638871271.484375
2081,762.3,1638871271.5
2082,778.66,1638871271.515625
2083,813.13,1638871271.53125
2084,858.87,1638871271.546875
2085,905.28,1638871271.5625
2086,944.27,1638871271.578125
2087,971.09,1638871271.59375
2088,981.87,1638871271.609375
2089,891.63,1638871271.625
2090,665.3,1638871271.640625
2091,333.24,1638871271.65625
2092,-25.89,1638871271.671875
2093,-341.62,1638871271.6875
2094,-583.26,1638871271.703125
2095,-752.06,1638871271.71875
2096,-862.82,1638871271.734375
2097,-933.41,1638871271.75
2098,-983.8,1638871271.765625
2099,-1011.23,1638871271.78125
2100,-1012.81,1638871271.796875
2101,-993.34,1638871271.8125
2102,-964.41,1638871271.828125
2103,-936.13,1638871271.84375
2104,-911.94,1638871271.859375
2105,-881.57,1638871271.875
2106,-837.52,1638871271.890625
2107,-776.49,1638871271.90625
2108,-689.99,1638871271.921875
2109,-578.98,1638871271.9375
2110,-455.37,1638871271.953125
2111,-337.24,1638871271.96875
2112,-239.54,1638871271.984375
2113,-168.57,1638871272.0
2114,-123.12,1638871272.015625
2115,-99.79,1638871272.03125
2116,-94.35,1638871272.046875
2117,-95.84,1638871272.0625
2118,-96.21,1638871272.078125
2119,-92.0,1638871272.09375
2120,-83.19,1638871272.109375
2121,-69.51,1638871272.125
2122,-49.11,1638871272.140625
2123,-20.47,1638871272.15625
2124,14.32,1638871272.171875
2125,50.55,1638871272.1875
2126,86.19,1638871272.203125
2127,119.14,1638871272.21875
2128,147.28,1638871272.234375
2129,168.41,1638871272.25
2130,180.52,1638871272.265625
2131,181.54,1638871272.28125
2132,168.89,1638871272.296875
2133,139.53,1638871272.3125
2134,92.42,1638871272.328125
2135,31.31,1638871272.34375
2136,-37.05,1638871272.359375
2137,-104.99,1638871272.375
2138,-166.04,1638871272.390625
2139,-215.95,1638871272.40625
2140,-252.62,1638871272.421875
2141,-275.34,1638871272.4375
2142,-284.38,1638871272.453125
2143,-280.47,1638871272.46875
2144,-265.17,1638871272.484375
2145,-241.94,1638871272.5
2146,-215.87,1638871272.515625
2147,-192.81,1638871272.53125
2148,-177.62,1638871272.546875
2149,-172.76,1638871272.5625
2150,-177.6,1638871272.578125
2151,-189.21,1638871272.59375
2152,-203.54,1638871272.609375
2153,-216.82,1638871272.625
2154,-226.32,1638871272.640625
2155,-230.46,1638871272.65625
2156,-228.2,1638871272.671875
2157,-218.47,1638871272.6875
2158,-199.85,1638871272.703125
2159,-170.89,1638871272.71875
2160,-131.2,1638871272.734375
2161,-82.6,1638871272.75
2162,-29.42,1638871272.765625
2163,22.37,1638871272.78125
2164,67.15,1638871272.796875
2165,101.51,1638871272.8125
2166,125.04,1638871272.828125
2167,139.48,1638871272.84375
2168,147.52,1638871272.859375
2169,150.92,1638871272.875
2170,149.64,1638871272.890625
2171,142.69,1638871272.90625
2172,129.69,1638871272.921875
2173,112.08,1638871272.9375
2174,93.08,1638871272.953125
2175,76.33,1638871272.96875
2176,64.36,1638871272.984375
2177,58.36,1638871273.0
2178,58.12,1638871273.015625
2179,62.05,1638871273.03125
2180,67.91,1638871273.046875
2181,72.77,1638871273.0625
2182,73.69,1638871273.078125
2183,68.53,1638871273.09375
2184,56.33,1638871273.109375
2185,37.92,1638871273.125
2186,16.95,1638871273.140625
2187,-1.16,1638871273.15625
2188,-11.27,1638871273.171875
2189,-9.66,1638871273.1875
2190,4.54,1638871273.203125
2191,30.07,1638871273.21875
2192,65.03,1638871273.234375
2193,108.04,1638871273.25
2194,153.6,1638871273.265625
2195,195.6,1638871273.28125
2196,229.34,1638871273.296875
2197,252.04,1638871273.3125
2198,261.44,1638871273.328125
2199,253.94,1638871273.34375
2200,227.07,1638871273.359375
2201,183.11,1638871273.375
2202,129.56,1638871273.390625
2203,77.14,1638871273.40625
2204,36.52,1638871273.421875
2205,15.97,1638871273.4375
2206,13.46,1638871273.453125
2207,23.32,1638871273.46875
2208,37.94,1638871273.484375
2209,50.05,1638871273.5
2210,54.53,1638871273.515625
2211,48.77,1638871273.53125
2212,32.91,1638871273.546875
2213,9.54,1638871273.5625
2214,-17.79,1638871273.578125
2215,-46.71,1638871273.59375
2216,-75.58,1638871273.609375
2217,-103.22,1638871273.625
2218,-128.56,1638871273.640625
2219,-146.24,1638871273.65625
2220,-151.3,1638871273.671875
2221,-142.15,1638871273.6875
2222,-122.04,1638871273.703125
2223,-97.57,1638871273.71875
2224,-75.36,1638871273.734375
2225,-59.09,1638871273.75
2226,-48.94,1638871273.765625
2227,-42.51,1638871273.78125
2228,-37.11,1638871273.796875
2229,-31.5,1638871273.8125
2230,-26.15,1638871273.828125
2231,-22.37,1638871273.84375
2232,-22.45,1638871273.859375
2233,-25.76,1638871273.875
2234,-31.18,1638871273.890625
2235,-38.0,1638871273.90625
2236,-46.04,1638871273.921875
2237,-56.13,1638871273.9375
2238,-69.33,1638871273.953125
2239,-86.25,1638871273.96875
2240,-106.33,1638871273.984375
2241,-127.17,1638871274.0
2242,-145.29,1638871274.015625
2243,-157.42,1638871274.03125
2244,-161.75,1638871274.046875
2245,-153.57,1638871274.0625
2246,-133.18,1638871274.078125
2247,-104.5,1638871274.09375
2248,-74.24,1638871274.109375
2249,-49.87,1638871274.125
2250,-36.56,1638871274.140625
2251,-35.96,1638871274.15625
2252,-46.36,1638871274.171875
2253,-63.2,1638871274.1875
2254,-80.64,1638871274.203125
2255,-93.98,1638871274.21875
2256,-100.44,1638871274.234375
2257,-99.67,1638871274.25
2258,-93.25,1638871274.265625
2259,-81.83,1638871274.28125
2260,-65.39,1638871274.296875
2261,-43.25,1638871274.3125
2262,-14.2,1638871274.328125
2263,22.55,1638871274.34375
2264,65.9,1638871274.359375
2265,112.57,1638871274.375
2266,157.31,1638871274.390625
2267,194.78,1638871274.40625
2268,224.08,1638871274.421875
2269,247.29,1638871274.4375
2270,267.91,1638871274.453125
2271,288.74,1638871274.46875
2272,310.79,1638871274.484375
2273,333.34,1638871274.5
2274,355.53,1638871274.515625
2275,377.09,1638871274.53125
2276,388.16,1638871274.546875
2277,383.0,1638871274.5625
2278,360.31,1638871274.578125
2279,324.1,1638871274.59375
2280,280.78,1638871274.609375
2281,236.54,1638871274.625
2282,196.07,1638871274.640625
2283,162.85,1638871274.65625
2284,139.15,1638871274.671875
2285,121.11,1638871274.6875
2286,107.08,1638871274.703125
2287,96.24,1638871274.71875
2288,88.08,1638871274.734375
2289,81.74,1638871274.75
2290,75.56,1638871274.765625
2291,66.55,1638871274.78125
2292,54.24,1638871274.796875
2293,37.88,1638871274.8125
2294,17.62,1638871274.828125
2295,-3.35,1638871274.84375
2296,-21.2,1638871274.859375
2297,-32.95,1638871274.875
2298,-37.61,1638871274.890625
2299,-36.23,1638871274.90625
2300,-31.23,1638871274.921875
2301,-25.42,1638871274.9375
2302,-21.52,1638871274.953125
2303,-21.07,1638871274.96875
2304,-22.68,1638871274.984375
2305,-23.94,1638871275.0
2306,-22.67,1638871275.015625
2307,-18.16,1638871275.03125
2308,-11.4,1638871275.046875
2309,-4.88,1638871275.0625
2310,-1.57,1638871275.078125
2311,-4.19,1638871275.09375
2312,-13.97,1638871275.109375
2313,-29.63,1638871275.125
2314,-48.42,1638871275.140625
2315,-67.46,1638871275.15625
2316,-84.95,1638871275.171875
2317,-100.88,1638871275.1875
2318,-117.02,1638871275.203125
2319,-136.6,1638871275.21875
2320,-163.43,1638871275.234375
2321,-200.59,1638871275.25
2322,-248.18,1638871275.265625
2323,-302.36,1638871275.28125
2324,-355.2,1638871275.296875
2325,-396.03,1638871275.3125
2326,-414.03,1638871275.328125
2327,-401.37,1638871275.34375
2328,-355.68,1638871275.359375
2329,-281.23,1638871275.375
2330,-188.09,1638871275.390625
2331,-89.91,1638871275.40625
2332,-0.73,1638871275.421875
2333,68.33,1638871275.4375
2334,110.91,1638871275.453125
2335,126.26,1638871275.46875
2336,118.14,1638871275.484375
2337,93.13,1638871275.5
2338,58.11,1638871275.515625
2339,17.96,1638871275.53125
2340,-25.44,1638871275.546875
2341,-71.96,1638871275.5625
2342,-120.65,1638871275.578125
2343,-167.95,1638871275.59375
2344,-207.22,1638871275.609375
2345,-231.13,1638871275.625
2346,-234.24,1638871275.640625
2347,-215.05,1638871275.65625
2348,-176.18,1638871275.671875
2349,-122.77,1638871275.6875
2350,-58.93,1638871275.703125
2351,13.76,1638871275.71875
2352,95.12,1638871275.734375
2353,183.7,1638871275.75
2354,273.49,1638871275.765625
2355,354.71,1638871275.78125
2356,416.94,1638871275.796875
2357,453.1,1638871275.8125
2358,460.69,1638871275.828125
2359,444.49,1638871275.84375
2360,414.23,1638871275.859375
2361,380.06,1638871275.875
2362,349.26,1638871275.890625
2363,322.44,1638871275.90625
2364,296.43,1638871275.921875
2365,267.44,1638871275.9375
2366,232.55,1638871275.953125
2367,187.01,1638871275.96875
2368,129.27,1638871275.984375
2369,61.18,1638871276.0
2370,-13.92,1638871276.015625
2371,-91.06,1638871276.03125
2372,-169.23,1638871276.046875
2373,-247.1,1638871276.0625
2374,-321.43,1638871276.078125
2375,-388.53,1638871276.09375
2376,-451.57,1638871276.109375
2377,-513.85,1638871276.125
2378,-577.41,1638871276.140625
2379,-643.44,1638871276.15625
2380,-708.59,1638871276.171875
2381,-771.61,1638871276.1875
2382,-826.58,1638871276.203125
2383,-863.14,1638871276.21875
2384,-871.62,1638871276.234375
2385,-853.89,1638871276.25
2386,-814.16,1638871276.265625
2387,-756.23,1638871276.28125
2388,-684.16,1638871276.296875
2389,-599.44,1638871276.3125
2390,-511.91,1638871276.328125
2391,-431.45,1638871276.34375
2392,-365.0,1638871276.359375
2393,-266.96,1638871276.375
2394,-119.79,1638871276.390625
2395,62.72,1638871276.40625
2396,245.44,1638871276.421875
2397,372.01,1638871276.4375
2398,448.98,1638871276.453125
2399,487.42,1638871276.46875
2400,494.69,1638871276.484375
2401,482.38,1638871276.5
2402,454.54,1638871276.515625
2403,405.94,1638871276.53125
2404,334.48,1638871276.546875
2405,256.42,1638871276.5625
2406,189.77,1638871276.578125
2407,149.33,1638871276.59375
2408,132.61,1638871276.609375
2409,131.25,1638871276.625
2410,138.63,1638871276.640625
2411,150.34,1638871276.65625
2412,158.46,1638871276.671875
2413,159.2,1638871276.6875
2414,153.28,1638871276.703125
2415,143.27,1638871276.71875
2416,133.86,1638871276.734375
2417,124.01,1638871276.75
2418,113.37,1638871276.765625
2419,103.72,1638871276.78125
2420,96.97,1638871276.796875
2421,91.01,1638871276.8125
2422,85.44,1638871276.828125
2423,77.31,1638871276.84375
2424,69.75,1638871276.859375
2425,65.83,1638871276.875
2426,63.95,1638871276.890625
2427,62.28,1638871276.90625
2428,59.77,1638871276.921875
2429,55.29,1638871276.9375
2430,46.51,1638871276.953125
2431,34.51,1638871276.96875
2432,23.61,1638871276.984375
2433,19.32,1638871277.0
2434,25.78,1638871277.015625
2435,42.21,1638871277.03125
2436,64.37,1638871277.046875
2437,86.0,1638871277.0625
2438,103.73,1638871277.078125
2439,109.85,1638871277.09375
2440,101.52,1638871277.109375
2441,81.9,1638871277.125
2442,57.41,1638871277.140625
2443,33.57,1638871277.15625
2444,12.69,1638871277.171875
2445,-5.01,1638871277.1875
2446,-19.78,1638871277.203125
2447,-31.42,1638871277.21875
2448,-39.58,1638871277.234375
2449,-43.06,1638871277.25
2450,-41.73,1638871277.265625
2451,-36.86,1638871277.28125
2452,-31.11,1638871277.296875
2453,-27.19,1638871277.3125
2454,-26.56,1638871277.328125
2455,-28.84,1638871277.34375
2456,-32.64,1638871277.359375
2457,-36.64,1638871277.375
2458,-40.03,1638871277.390625
2459,-42.25,1638871277.40625
2460,-43.69,1638871277.421875
2461,-45.68,1638871277.4375
2462,-49.51,1638871277.453125
2463,-55.73,1638871277.46875
2464,-63.18,1638871277.484375
2465,-70.16,1638871277.5
2466,-75.38,1638871277.515625
2467,-77.96,1638871277.53125
2468,-79.05,1638871277.546875
2469,-79.87,1638871277.5625
2470,-81.72,1638871277.578125
2471,-85.8,1638871277.59375
2472,-92.42,1638871277.609375
2473,-99.89,1638871277.625
2474,-106.27,1638871277.640625
2475,-110.24,1638871277.65625
2476,-111.51,1638871277.671875
2477,-112.98,1638871277.6875
2478,-116.24,1638871277.703125
2479,-121.9,1638871277.71875
2480,-129.85,1638871277.734375
2481,-140.44,1638871277.75
2482,-150.93,1638871277.765625
2483,-158.26,1638871277.78125
2484,-160.14,1638871277.796875
2485,-155.96,1638871277.8125
2486,-149.99,1638871277.828125
2487,-144.0,1638871277.84375
2488,-138.17,1638871277.859375
2489,-132.07,1638871277.875
2490,-123.44,1638871277.890625
2491,-107.41,1638871277.90625
2492,-79.5,1638871277.921875
2493,-36.88,1638871277.9375
2494,20.49,1638871277.953125
2495,85.71,1638871277.96875
2496,154.81,1638871277.984375
2497,225.5,1638871278.0
2498,295.97,1638871278.015625
2499,348.11,1638871278.03125
2500,365.77,1638871278.046875
2501,340.01,1638871278.0625
2502,274.71,1638871278.078125
2503,210.99,1638871278.09375
2504,161.09,1638871278.109375
2505,127.35,1638871278.125
2506,110.13,1638871278.140625
2507,96.38,1638871278.15625
2508,81.89,1638871278.171875
2509,67.91,1638871278.1875
2510,57.17,1638871278.203125
2511,51.77,1638871278.21875
2512,51.49,1638871278.234375
2513,49.28,1638871278.25
2514,41.21,1638871278.265625
2515,25.51,1638871278.28125
2516,1.67,1638871278.296875
2517,-27.52,1638871278.3125
2518,-56.9,1638871278.328125
2519,-81.18,1638871278.34375
2520,-96.47,1638871278.359375
2521,-101.58,1638871278.375
2522,-101.37,1638871278.390625
2523,-98.71,1638871278.40625
2524,-94.94,1638871278.421875
2525,-90.15,1638871278.4375
2526,-81.78,1638871278.453125
2527,-65.89,1638871278.46875
2528,-38.85,1638871278.484375
2529,1.74,1638871278.5
2530,56.44,1638871278.515625
2531,121.98,1638871278.53125
2532,195.71,1638871278.546875
2533,274.14,1638871278.5625
2534,351.67,1638871278.578125
2535,421.41,1638871278.59375
2536,475.77,1638871278.609375
2537,508.43,1638871278.625
2538,516.62,1638871278.640625
2539,502.0,1638871278.65625
2540,469.08,1638871278.671875
2541,425.26,1638871278.6875
2542,377.99,1638871278.703125
2543,332.64,1638871278.71875
2544,292.32,1638871278.734375
2545,258.07,1638871278.75
2546,229.45,1638871278.765625
2547,204.91,1638871278.78125
2548,181.98,1638871278.796875
2549,156.94,1638871278.8125
2550,125.9,1638871278.828125
2551,85.28,1638871278.84375
2552,32.66,1638871278.859375
2553,-31.95,1638871278.875
2554,-105.34,1638871278.890625
2555,-180.81,1638871278.90625
2556,-249.18,1638871278.921875
2557,-301.09,1638871278.9375
2558,-329.75,1638871278.953125
2559,-332.95,1638871278.96875
2560,-313.61,1638871278.984375
2561,-278.31,1638871279.0
2562,-235.0,1638871279.015625
2563,-190.92,1638871279.03125
2564,-151.63,1638871279.046875
2565,-120.82,1638871279.0625
2566,-100.66,1638871279.078125
2567,-91.69,1638871279.09375
2568,-92.25,1638871279.109375
2569,-98.26,1638871279.125
2570,-103.78,1638871279.140625
2571,-102.17,1638871279.15625
2572,-87.79,1638871279.171875
2573,-57.64,1638871279.1875
2574,-12.37,1638871279.203125
2575,43.27,1638871279.21875
2576,100.47,1638871279.234375
2577,148.08,1638871279.25
2578,175.86,1638871279.265625
2579,178.72,1638871279.28125
2580,159.96,1638871279.296875
2581,131.25,1638871279.3125
2582,108.07,1638871279.328125
2583,102.29,1638871279.34375
2584,115.84,1638871279.359375
2585,139.29,1638871279.375
2586,156.89,1638871279.390625
2587,155.4,1638871279.40625
2588,131.64,1638871279.421875
2589,94.38,1638871279.4375
2590,59.57,1638871279.453125
2591,41.63,1638871279.46875
2592,45.96,1638871279.484375
2593,66.89,1638871279.5
2594,91.85,1638871279.515625
2595,108.23,1638871279.53125
2596,108.63,1638871279.546875
2597,92.12,1638871279.5625
2598,61.94,1638871279.578125
2599,22.23,1638871279.59375
2600,-23.14,1638871279.609375
2601,-69.92,1638871279.625
2602,-112.3,1638871279.640625
2603,-142.92,1638871279.65625
2604,-154.85,1638871279.671875
2605,-144.86,1638871279.6875
2606,-116.14,1638871279.703125
2607,-78.13,1638871279.71875
2608,-43.44,1638871279.734375
2609,-22.71,1638871279.75
2610,-20.75,1638871279.765625
2611,-35.04,1638871279.78125
2612,-57.23,1638871279.796875
2613,-76.5,1638871279.8125
2614,-83.81,1638871279.828125
2615,-75.22,1638871279.84375
2616,-53.11,1638871279.859375
2617,-24.88,1638871279.875
2618,1.21,1638871279.890625
2619,18.52,1638871279.90625
2620,23.38,1638871279.921875
2621,15.0,1638871279.9375
2622,-5.14,1638871279.953125
2623,-34.71,1638871279.96875
2624,-71.81,1638871279.984375
2625,-115.86,1638871280.0
2626,-167.07,1638871280.015625
2627,-222.35,1638871280.03125
2628,-276.57,1638871280.046875
2629,-323.7,1638871280.0625
2630,-358.41,1638871280.078125
2631,-377.2,1638871280.09375
2632,-378.93,1638871280.109375
2633,-365.21,1638871280.125
2634,-339.92,1638871280.140625
2635,-307.83,1638871280.15625
2636,-268.69,1638871280.171875
2637,-220.49,1638871280.1875
2638,-162.32,1638871280.203125
2639,-96.73,1638871280.21875
2640,-29.36,1638871280.234375
2641,33.88,1638871280.25
2642,89.22,1638871280.265625
2643,136.15,1638871280.28125
2644,177.57,1638871280.296875
2645,224.36,1638871280.3125
2646,287.77,1638871280.328125
2647,374.12,1638871280.34375
2648,481.2,1638871280.359375
2649,599.33,1638871280.375
2650,715.2,1638871280.390625
2651,815.94,1638871280.40625
2652,891.85,1638871280.421875
2653,904.91,1638871280.4375
2654,833.09,1638871280.453125
2655,682.24,1638871280.46875
2656,488.54,1638871280.484375
2657,297.36,1638871280.5
2658,138.72,1638871280.515625
2659,20.18,1638871280.53125
2660,-65.0,1638871280.546875
2661,-127.23,1638871280.5625
2662,-174.14,1638871280.578125
2663,-204.0,1638871280.59375
2664,-213.67,1638871280.609375
2665,-203.72,1638871280.625
2666,-180.99,1638871280.640625
2667,-155.9,1638871280.65625
2668,-136.97,1638871280.671875
2669,-127.83,1638871280.6875
2670,-127.6,1638871280.703125
2671,-132.77,1638871280.71875
2672,-135.53,1638871280.734375
2673,-130.25,1638871280.75
2674,-115.76,1638871280.765625
2675,-96.16,1638871280.78125
2676,-78.46,1638871280.796875
2677,-68.86,1638871280.8125
2678,-69.43,1638871280.828125
2679,-78.3,1638871280.84375
2680,-91.45,1638871280.859375
2681,-102.15,1638871280.875
2682,-105.89,1638871280.890625
2683,-101.48,1638871280.90625
2684,-91.58,1638871280.921875
2685,-82.19,1638871280.9375
2686,-78.64,1638871280.953125
2687,-83.08,1638871280.96875
2688,-94.09,1638871280.984375
2689,-107.95,1638871281.0
2690,-119.38,1638871281.015625
2691,-125.22,1638871281.03125
2692,-124.54,1638871281.046875
2693,-118.89,1638871281.0625
2694,-113.33,1638871281.078125
2695,-112.7,1638871281.09375
2696,-119.23,1638871281.109375
2697,-131.8,1638871281.125
2698,-147.71,1638871281.140625
2699,-157.72,1638871281.15625
2700,-157.92,1638871281.171875
2701,-147.96,1638871281.1875
2702,-130.73,1638871281.203125
2703,-113.93,1638871281.21875
2704,-105.65,1638871281.234375
2705,-111.68,1638871281.25
2706,-134.28,1638871281.265625
2707,-173.07,1638871281.28125
2708,-226.02,1638871281.296875
2709,-290.24,1638871281.3125
2710,-360.04,1638871281.328125
2711,-410.94,1638871281.34375
2712,-421.72,1638871281.359375
2713,-384.86,1638871281.375
2714,-312.14,1638871281.390625
2715,-226.18,1638871281.40625
2716,-147.52,1638871281.421875
2717,-87.26,1638871281.4375
2718,-47.15,1638871281.453125
2719,-21.96,1638871281.46875
2720,-4.34,1638871281.484375
2721,8.08,1638871281.5
2722,14.43,1638871281.515625
2723,13.25,1638871281.53125
2724,5.55,1638871281.546875
2725,-5.04,1638871281.5625
2726,-14.58,1638871281.578125
2727,-18.8,1638871281.59375
2728,-14.94,1638871281.609375
2729,-2.94,1638871281.625
2730,11.48,1638871281.640625
2731,21.8,1638871281.65625
2732,24.26,1638871281.671875
2733,19.14,1638871281.6875
2734,9.77,1638871281.703125
2735,0.77,1638871281.71875
2736,-3.83,1638871281.734375
2737,-0.23,1638871281.75
2738,13.17,1638871281.765625
2739,31.3,1638871281.78125
2740,48.53,1638871281.796875
2741,59.3,1638871281.8125
2742,61.91,1638871281.828125
2743,58.02,1638871281.84375
2744,51.44,1638871281.859375
2745,46.46,1638871281.875
2746,48.55,1638871281.890625
2747,60.73,1638871281.90625
2748,77.39,1638871281.921875
2749,91.34,1638871281.9375
2750,98.71,1638871281.953125
2751,98.39,1638871281.96875
2752,92.8,1638871281.984375
2753,87.17,1638871282.0
2754,87.6,1638871282.015625
2755,102.05,1638871282.03125
2756,136.05,1638871282.046875
2757,185.92,1638871282.0625
2758,246.45,1638871282.078125
2759,315.04,1638871282.09375
2760,388.29,1638871282.109375
2761,460.89,1638871282.125
2762,525.47,1638871282.140625
2763,553.06,1638871282.15625
2764,522.4,1638871282.171875
2765,467.75,1638871282.1875
2766,415.31,1638871282.203125
2767,367.03,1638871282.21875
2768,325.95,1638871282.234375
2769,288.53,1638871282.25
2770,245.69,1638871282.265625
2771,188.01,1638871282.28125
2772,111.82,1638871282.296875
2773,25.9,1638871282.3125
2774,-61.36,1638871282.328125
2775,-137.61,1638871282.34375
2776,-191.11,1638871282.359375
2777,-218.38,1638871282.375
2778,-229.59,1638871282.390625
2779,-239.27,1638871282.40625
2780,-255.51,1638871282.421875
2781,-276.73,1638871282.4375
2782,-292.73,1638871282.453125
2783,-293.97,1638871282.46875
2784,-280.73,1638871282.484375
2785,-259.48,1638871282.5
2786,-237.11,1638871282.515625
2787,-219.51,1638871282.53125
2788,-208.13,1638871282.546875
2789,-200.44,1638871282.5625
2790,-190.52,1638871282.578125
2791,-171.58,1638871282.59375
2792,-139.59,1638871282.609375
2793,-96.41,1638871282.625
2794,-46.47,1638871282.640625
2795,6.76,1638871282.65625
2796,60.65,1638871282.671875
2797,110.76,1638871282.6875
2798,153.64,1638871282.703125
2799,184.89,1638871282.71875
2800,200.07,1638871282.734375
2801,196.0,1638871282.75
2802,172.46,1638871282.765625
2803,134.11,1638871282.78125
2804,90.02,1638871282.796875
2805,49.7,1638871282.8125
2806,19.64,1638871282.828125
2807,1.92,1638871282.84375
2808,-5.92,1638871282.859375
2809,-7.8,1638871282.875
2810,-6.75,1638871282.890625
2811,-3.9,1638871282.90625
2812,0.79,1638871282.921875
2813,7.18,1638871282.9375
2814,13.7,1638871282.953125
2815,17.35,1638871282.96875
2816,15.59,1638871282.984375
2817,6.92,1638871283.0
2818,-7.66,1638871283.015625
2819,-26.08,1638871283.03125
2820,-45.03,1638871283.046875
2821,-61.94,1638871283.0625
2822,-75.84,1638871283.078125
2823,-87.59,1638871283.09375
2824,-99.58,1638871283.109375
2825,-113.65,1638871283.125
2826,-130.53,1638871283.140625
2827,-148.35,1638871283.15625
2828,-163.49,1638871283.171875
2829,-172.11,1638871283.1875
2830,-171.82,1638871283.203125
2831,-162.37,1638871283.21875
2832,-144.73,1638871283.234375
2833,-120.52,1638871283.25
2834,-88.15,1638871283.265625
2835,-49.91,1638871283.28125
2836,-9.86,1638871283.296875
2837,25.72,1638871283.3125
2838,50.31,1638871283.328125
2839,60.41,1638871283.34375
2840,58.29,1638871283.359375
2841,53.01,1638871283.375
2842,52.85,1638871283.390625
2843,62.85,1638871283.40625
2844,81.76,1638871283.421875
2845,103.25,1638871283.4375
2846,118.92,1638871283.453125
2847,122.8,1638871283.46875
2848,113.99,1638871283.484375
2849,93.66,1638871283.5
2850,68.88,1638871283.515625
2851,45.17,1638871283.53125
2852,24.48,1638871283.546875
2853,5.39,1638871283.5625
2854,-13.63,1638871283.578125
2855,-32.55,1638871283.59375
2856,-49.4,1638871283.609375
2857,-61.37,1638871283.625
2858,-66.78,1638871283.640625
2859,-65.68,1638871283.65625
2860,-60.91,1638871283.671875
2861,-56.23,1638871283.6875
2862,-54.81,1638871283.703125
2863,-57.64,1638871283.71875
2864,-63.45,1638871283.734375
2865,-69.57,1638871283.75
2866,-73.13,1638871283.765625
2867,-72.33,1638871283.78125
2868,-66.79,1638871283.796875
2869,-58.29,1638871283.8125
2870,-49.32,1638871283.828125
2871,-42.03,1638871283.84375
2872,-37.25,1638871283.859375
2873,-33.67,1638871283.875
2874,-29.23,1638871283.890625
2875,-21.99,1638871283.90625
2876,-11.05,1638871283.921875
2877,3.14,1638871283.9375
2878,18.52,1638871283.953125
2879,32.6,1638871283.96875
2880,43.27,1638871283.984375
2881,49.79,1638871284.0
2882,52.91,1638871284.015625
2883,53.96,1638871284.03125
2884,54.34,1638871284.046875
2885,54.93,1638871284.0625
2886,56.42,1638871284.078125
2887,59.22,1638871284.09375
2888,63.45,1638871284.109375
2889,67.98,1638871284.125
2890,70.23,1638871284.140625
2891,66.11,1638871284.15625
2892,50.93,1638871284.171875
2893,21.63,1638871284.1875
2894,-21.35,1638871284.203125
2895,-73.86,1638871284.21875
2896,-129.71,1638871284.234375
2897,-183.15,1638871284.25
2898,-230.8,1638871284.265625
2899,-270.89,1638871284.28125
2900,-301.69,1638871284.296875
2901,-320.22,1638871284.3125
2902,-322.38,1638871284.328125
2903,-304.76,1638871284.34375
2904,-267.16,1638871284.359375
2905,-213.8,1638871284.375
2906,-150.68,1638871284.390625
2907,-86.98,1638871284.40625
2908,-30.16,1638871284.421875
2909,16.77,1638871284.4375
2910,55.16,1638871284.453125
2911,88.62,1638871284.46875
2912,120.82,1638871284.484375
2913,154.1,1638871284.5
2914,189.78,1638871284.515625
2915,229.08,1638871284.53125
2916,272.84,1638871284.546875
2917,320.8,1638871284.5625
2918,369.87,1638871284.578125
2919,413.32,1638871284.59375
2920,442.38,1638871284.609375
2921,449.5,1638871284.625
2922,431.11,1638871284.640625
2923,388.69,1638871284.65625
2924,327.65,1638871284.671875
2925,254.99,1638871284.6875
2926,177.89,1638871284.703125
2927,103.13,1638871284.71875
2928,37.22,1638871284.734375
2929,-13.71,1638871284.75
2930,-44.73,1638871284.765625
2931,-54.73,1638871284.78125
2932,-47.86,1638871284.796875
2933,-32.53,1638871284.8125
2934,-18.39,1638871284.828125
2935,-12.47,1638871284.84375
2936,-17.16,1638871284.859375
2937,-30.76,1638871284.875
2938,-49.67,1638871284.890625
2939,-69.91,1638871284.90625
2940,-89.22,1638871284.921875
2941,-106.87,1638871284.9375
2942,-122.47,1638871284.953125
2943,-134.94,1638871284.96875
2944,-142.32,1638871284.984375
2945,-142.62,1638871285.0
2946,-134.24,1638871285.015625
2947,-115.99,1638871285.03125
2948,-86.36,1638871285.046875
2949,-45.51,1638871285.0625
2950,3.62,1638871285.078125
2951,54.89,1638871285.09375
2952,100.25,1638871285.109375
2953,132.38,1638871285.125
2954,147.0,1638871285.140625
2955,145.02,1638871285.15625
2956,126.28,1638871285.171875
2957,96.28,1638871285.1875
2958,63.66,1638871285.203125
2959,36.09,1638871285.21875
2960,16.47,1638871285.234375
2961,2.73,1638871285.25
2962,-8.79,1638871285.265625
2963,-20.57,1638871285.28125
2964,-32.1,1638871285.296875
2965,-41.06,1638871285.3125
2966,-44.45,1638871285.328125
2967,-41.12,1638871285.34375
2968,-32.57,1638871285.359375
2969,-22.01,1638871285.375
2970,-13.15,1638871285.390625
2971,-8.9,1638871285.40625
2972,-11.43,1638871285.421875
2973,-21.52,1638871285.4375
2974,-38.91,1638871285.453125
2975,-61.29,1638871285.46875
2976,-84.97,1638871285.484375
2977,-105.22,1638871285.5
2978,-117.29,1638871285.515625
2979,-118.26,1638871285.53125
2980,-103.72,1638871285.546875
2981,-76.92,1638871285.5625
2982,-45.64,1638871285.578125
2983,-18.3,1638871285.59375
2984,0.38,1638871285.609375
2985,10.69,1638871285.625
2986,16.93,1638871285.640625
2987,24.65,1638871285.65625
2988,36.83,1638871285.671875
2989,53.06,1638871285.6875
2990,68.19,1638871285.703125
2991,76.18,1638871285.71875
2992,71.79,1638871285.734375
2993,52.88,1638871285.75
2994,21.34,1638871285.765625
2995,-17.33,1638871285.78125
2996,-55.81,1638871285.796875
2997,-88.42,1638871285.8125
2998,-111.91,1638871285.828125
2999,-126.5,1638871285.84375
3000,-134.5,1638871285.859375
3001,-138.34,1638871285.875
3002,-138.84,1638871285.890625
3003,-135.07,1638871285.90625
3004,-125.46,1638871285.921875
3005,-103.59,1638871285.9375
3006,-70.23,1638871285.953125
3007,-30.13,1638871285.96875
3008,9.89,1638871285.984375
3009,43.68,1638871286.0
3010,68.11,1638871286.015625
3011,83.51,1638871286.03125
3012,92.9,1638871286.046875
3013,100.02,1638871286.0625
3014,106.98,1638871286.078125
3015,113.33,1638871286.09375
3016,116.97,1638871286.109375
3017,115.26,1638871286.125
3018,105.73,1638871286.140625
3019,87.29,1638871286.15625
3020,60.2,1638871286.171875
3021,25.84,1638871286.1875
3022,-12.88,1638871286.203125
3023,-52.27,1638871286.21875
3024,-87.94,1638871286.234375
3025,-114.38,1638871286.25
3026,-123.34,1638871286.265625
3027,-111.2,1638871286.28125
3028,-81.02,1638871286.296875
3029,-42.45,1638871286.3125
3030,-8.03,1638871286.328125
3031,12.54,1638871286.34375
3032,15.43,1638871286.359375
3033,3.85,1638871286.375
3034,-13.68,1638871286.390625
3035,-25.93,1638871286.40625
3036,-25.31,1638871286.421875
3037,-11.24,1638871286.4375
3038,9.71,1638871286.453125
3039,25.43,1638871286.46875
3040,31.91,1638871286.484375
3041,28.6,1638871286.5
3042,15.09,1638871286.515625
3043,-8.55,1638871286.53125
3044,-42.75,1638871286.546875
3045,-85.5,1638871286.5625
3046,-130.69,1638871286.578125
3047,-169.47,1638871286.59375
3048,-193.3,1638871286.609375
3049,-196.91,1638871286.625
3050,-181.58,1638871286.640625
3051,-153.92,1638871286.65625
3052,-116.81,1638871286.671875
3053,-77.56,1638871286.6875
3054,-43.48,1638871286.703125
3055,-18.52,1638871286.71875
3056,-2.96,1638871286.734375
3057,5.03,1638871286.75
3058,7.86,1638871286.765625
3059,7.22,1638871286.78125
3060,4.42,1638871286.796875
3061,0.76,1638871286.8125
3062,-3.63,1638871286.828125
3063,-9.27,1638871286.84375
3064,-16.61,1638871286.859375
3065,-26.16,1638871286.875
3066,-38.24,1638871286.890625
3067,-52.25,1638871286.90625
3068,-66.76,1638871286.921875
3069,-80.09,1638871286.9375
3070,-90.53,1638871286.953125
3071,-97.57,1638871286.96875
3072,-101.41,1638871286.984375
3073,-102.06,1638871287.0
3074,-100.27,1638871287.015625
3075,-96.22,1638871287.03125
3076,-89.98,1638871287.046875
3077,-81.07,1638871287.0625
3078,-68.96,1638871287.078125
3079,-53.44,1638871287.09375
3080,-35.17,1638871287.109375
3081,-15.6,1638871287.125
3082,4.31,1638871287.140625
3083,23.51,1638871287.15625
3084,40.95,1638871287.171875
3085,51.87,1638871287.1875
3086,55.31,1638871287.203125
3087,52.11,1638871287.21875
3088,43.54,1638871287.234375
3089,34.7,1638871287.25
3090,25.29,1638871287.265625
3091,14.93,1638871287.28125
3092,3.28,1638871287.296875
3093,-9.89,1638871287.3125
3094,-24.83,1638871287.328125
3095,-41.05,1638871287.34375
3096,-57.54,1638871287.359375
3097,-73.59,1638871287.375
3098,-88.62,1638871287.390625
3099,-102.66,1638871287.40625
3100,-114.87,1638871287.421875
3101,-124.11,1638871287.4375
3102,-128.97,1638871287.453125
3103,-127.68,1638871287.46875
3104,-123.19,1638871287.484375
3105,-116.3,1638871287.5
3106,-107.7,1638871287.515625
3107,-98.04,1638871287.53125
3108,-88.42,1638871287.546875
3109,-79.3,1638871287.5625
3110,-70.94,1638871287.578125
3111,-63.55,1638871287.59375
3112,-57.34,1638871287.609375
3113,-52.24,1638871287.625
3114,-47.56,1638871287.640625
3115,-42.84,1638871287.65625
3116,-37.73,1638871287.671875
3117,-32.14,1638871287.6875
3118,-25.68,1638871287.703125
3119,-17.84,1638871287.71875
3120,-8.42,1638871287.734375
3121,2.25,1638871287.75
3122,13.36,1638871287.765625
3123,24.23,1638871287.78125
3124,33.85,1638871287.796875
3125,41.27,1638871287.8125
3126,45.71,1638871287.828125
3127,47.0,1638871287.84375
3128,45.58,1638871287.859375
3129,42.15,1638871287.875
3130,37.33,1638871287.890625
3131,31.49,1638871287.90625
3132,25.18,1638871287.921875
3133,18.77,1638871287.9375
3134,12.78,1638871287.953125
3135,7.93,1638871287.96875
3136,5.25,1638871287.984375
3137,6.27,1638871288.0
3138,12.06,1638871288.015625
3139,22.6,1638871288.03125
3140,36.59,1638871288.046875
3141,52.06,1638871288.0625
3142,66.91,1638871288.078125
3143,79.6,1638871288.09375
3144,89.62,1638871288.109375
3145,97.37,1638871288.125
3146,105.25,1638871288.140625
3147,115.17,1638871288.15625
3148,127.43,1638871288.171875
3149,140.33,1638871288.1875
3150,151.24,1638871288.203125
3151,158.25,1638871288.21875
3152,161.14,1638871288.234375
3153,161.59,1638871288.25
3154,162.46,1638871288.265625
3155,169.73,1638871288.28125
3156,187.75,1638871288.296875
3157,217.74,1638871288.3125
3158,257.69,1638871288.328125
3159,304.2,1638871288.34375
3160,354.22,1638871288.359375
3161,405.13,1638871288.375
3162,453.72,1638871288.390625
3163,495.23,1638871288.40625
3164,528.99,1638871288.421875
3165,554.2,1638871288.4375
3166,570.0,1638871288.453125
3167,575.47,1638871288.46875
3168,570.61,1638871288.484375
3169,556.89,1638871288.5
3170,536.49,1638871288.515625
3171,511.54,1638871288.53125
3172,484.61,1638871288.546875
3173,466.33,1638871288.5625
3174,468.03,1638871288.578125
3175,497.02,1638871288.59375
3176,552.32,1638871288.609375
3177,624.12,1638871288.625
3178,697.25,1638871288.640625
3179,756.24,1638871288.65625
3180,790.12,1638871288.671875
3181,755.95,1638871288.6875
3182,634.97,1638871288.703125
3183,438.17,1638871288.71875
3184,204.06,1638871288.734375
3185,-22.27,1638871288.75
3186,-211.45,1638871288.765625
3187,-355.42,1638871288.78125
3188,-459.26,1638871288.796875
3189,-531.29,1638871288.8125
3190,-578.13,1638871288.828125
3191,-598.09,1638871288.84375
3192,-591.01,1638871288.859375
3193,-561.86,1638871288.875
3194,-520.66,1638871288.890625
3195,-478.73,1638871288.90625
3196,-444.01,1638871288.921875
3197,-419.16,1638871288.9375
3198,-402.51,1638871288.953125
3199,-390.62,1638871288.96875
3200,-375.74,1638871288.984375
3201,-353.35,1638871289.0
3202,-323.88,1638871289.015625
3203,-291.69,1638871289.03125
3204,-262.34,1638871289.046875
3205,-239.4,1638871289.0625
3206,-223.29,1638871289.078125
3207,-212.25,1638871289.09375
3208,-203.83,1638871289.109375
3209,-193.19,1638871289.125
3210,-178.91,1638871289.140625
3211,-162.97,1638871289.15625
3212,-149.09,1638871289.171875
3213,-140.87,1638871289.1875
3214,-140.26,1638871289.203125
3215,-147.32,1638871289.21875
3216,-161.04,1638871289.234375
3217,-180.43,1638871289.25
3218,-204.24,1638871289.265625
3219,-229.55,1638871289.28125
3220,-256.29,1638871289.296875
3221,-284.46,1638871289.3125
3222,-313.11,1638871289.328125
3223,-340.0,1638871289.34375
3224,-362.22,1638871289.359375
3225,-377.0,1638871289.375
3226,-382.35,1638871289.390625
3227,-363.24,1638871289.40625
3228,-313.4,1638871289.421875
3229,-238.17,1638871289.4375
3230,-151.4,1638871289.453125
3231,-68.19,1638871289.46875
3232,1.75,1638871289.484375
3233,55.45,1638871289.5
3234,94.74,1638871289.515625
3235,123.59,1638871289.53125
3236,145.54,1638871289.546875
3237,161.11,1638871289.5625
3238,168.71,1638871289.578125
3239,167.3,1638871289.59375
3240,157.28,1638871289.609375
3241,140.74,1638871289.625
3242,120.76,1638871289.640625
3243,100.7,1638871289.65625
3244,83.57,1638871289.671875
3245,70.65,1638871289.6875
3246,60.35,1638871289.703125
3247,48.62,1638871289.71875
3248,31.85,1638871289.734375
3249,7.87,1638871289.75
3250,-23.9,1638871289.765625
3251,-63.56,1638871289.78125
3252,-112.07,1638871289.796875
3253,-166.31,1638871289.8125
3254,-224.3,1638871289.828125
3255,-274.59,1638871289.84375
3256,-304.77,1638871289.859375
3257,-304.95,1638871289.875
3258,-273.52,1638871289.890625
3259,-218.17,1638871289.90625
3260,-152.01,1638871289.921875
3261,-88.31,1638871289.9375
3262,-35.82,1638871289.953125
3263,1.6,1638871289.96875
3264,25.01,1638871289.984375
3265,37.21,1638871290.0
3266,41.62,1638871290.015625
3267,41.07,1638871290.03125
3268,38.03,1638871290.046875
3269,34.87,1638871290.0625
3270,34.04,1638871290.078125
3271,38.02,1638871290.09375
3272,46.87,1638871290.109375
3273,59.29,1638871290.125
3274,72.63,1638871290.140625
3275,85.04,1638871290.15625
3276,96.16,1638871290.171875
3277,107.33,1638871290.1875
3278,121.4,1638871290.203125
3279,138.91,1638871290.21875
3280,161.54,1638871290.234375
3281,189.49,1638871290.25
3282,222.17,1638871290.265625
3283,257.13,1638871290.28125
3284,289.75,1638871290.296875
3285,313.24,1638871290.3125
3286,319.9,1638871290.328125
3287,303.9,1638871290.34375
3288,264.05,1638871290.359375
3289,204.83,1638871290.375
3290,132.21,1638871290.390625
3291,51.87,1638871290.40625
3292,-32.77,1638871290.421875
3293,-119.96,1638871290.4375
3294,-208.01,1638871290.453125
3295,-293.23,1638871290.46875
3296,-368.87,1638871290.484375
3297,-426.58,1638871290.5
3298,-451.78,1638871290.515625
3299,-437.69,1638871290.53125
3300,-391.85,1638871290.546875
3301,-333.9,1638871290.5625
3302,-283.79,1638871290.578125
3303,-251.68,1638871290.59375
3304,-236.62,1638871290.609375
3305,-231.36,1638871290.625
3306,-228.69,1638871290.640625
3307,-223.85,1638871290.65625
3308,-217.49,1638871290.671875
3309,-212.09,1638871290.6875
3310,-208.65,1638871290.703125
3311,-205.24,1638871290.71875
3312,-198.15,1638871290.734375
3313,-183.88,1638871290.75
3314,-162.37,1638871290.765625
3315,-135.01,1638871290.78125
3316,-104.12,1638871290.796875
3317,-73.18,1638871290.8125
3318,-44.89,1638871290.828125
3319,-19.97,1638871290.84375
3320,2.96,1638871290.859375
3321,26.05,1638871290.875
3322,50.78,1638871290.890625
3323,77.31,1638871290.90625
3324,105.02,1638871290.921875
3325,132.96,1638871290.9375
3326,159.56,1638871290.953125
3327,183.72,1638871290.96875
3328,205.38,1638871290.984375
3329,225.42,1638871291.0
3330,244.89,1638871291.015625
3331,264.18,1638871291.03125
3332,282.89,1638871291.046875
3333,300.29,1638871291.0625
3334,315.71,1638871291.078125
3335,328.64,1638871291.09375
3336,339.42,1638871291.109375
3337,349.39,1638871291.125
3338,360.29,1638871291.140625
3339,373.05,1638871291.15625
3340,386.64,1638871291.171875
3341,397.87,1638871291.1875
3342,402.38,1638871291.203125
3343,396.23,1638871291.21875
3344,377.31,1638871291.234375
3345,346.27,1638871291.25
3346,306.28,1638871291.265625
3347,261.8,1638871291.28125
3348,217.1,1638871291.296875
3349,175.2,1638871291.3125
3350,137.76,1638871291.328125
3351,105.42,1638871291.34375
3352,78.24,1638871291.359375
3353,55.84,1638871291.375
3354,37.37,1638871291.390625
3355,21.54,1638871291.40625
3356,6.97,1638871291.421875
3357,-7.32,1638871291.4375
3358,-21.5,1638871291.453125
3359,-34.87,1638871291.46875
3360,-46.39,1638871291.484375
3361,-55.21,1638871291.5
3362,-61.11,1638871291.515625
3363,-64.58,1638871291.53125
3364,-66.56,1638871291.546875
3365,-68.03,1638871291.5625
3366,-69.82,1638871291.578125
3367,-72.53,1638871291.59375
3368,-76.47,1638871291.609375
3369,-81.72,1638871291.625
3370,-88.0,1638871291.640625
3371,-94.58,1638871291.65625
3372,-100.32,1638871291.671875
3373,-103.92,1638871291.6875
3374,-104.36,1638871291.703125
3375,-101.29,1638871291.71875
3376,-95.24,1638871291.734375
3377,-87.43,1638871291.75
3378,-79.34,1638871291.765625
3379,-72.25,1638871291.78125
3380,-66.9,1638871291.796875
3381,-63.44,1638871291.8125
3382,-61.6,1638871291.828125
3383,-60.87,1638871291.84375
3384,-60.76,1638871291.859375
3385,-60.89,1638871291.875
3386,-61.07,1638871291.890625
3387,-61.49,1638871291.90625
3388,-62.55,1638871291.921875
3389,-64.77,1638871291.9375
3390,-68.34,1638871291.953125
3391,-72.77,1638871291.96875
3392,-76.74,1638871291.984375
3393,-78.4,1638871292.0
3394,-76.02,1638871292.015625
3395,-68.69,1638871292.03125
3396,-56.7,1638871292.046875
3397,-41.57,1638871292.0625
3398,-25.48,1638871292.078125
3399,-10.61,1638871292.09375
3400,1.37,1638871292.109375
3401,9.57,1638871292.125
3402,14.0,1638871292.140625
3403,15.48,1638871292.15625
3404,15.44,1638871292.171875
3405,15.68,1638871292.1875
3406,17.86,1638871292.203125
3407,22.98,1638871292.21875
3408,30.98,1638871292.234375
3409,40.75,1638871292.25
3410,50.52,1638871292.265625
3411,58.52,1638871292.28125
3412,63.55,1638871292.296875
3413,65.22,1638871292.3125
3414,63.88,1638871292.328125
3415,60.31,1638871292.34375
3416,55.35,1638871292.359375
3417,49.79,1638871292.375
3418,44.3,1638871292.390625
3419,39.36,1638871292.40625
3420,35.18,1638871292.421875
3421,31.54,1638871292.4375
3422,27.78,1638871292.453125
3423,23.09,1638871292.46875
3424,16.95,1638871292.484375
3425,9.44,1638871292.5
3426,1.39,1638871292.515625
3427,-6.01,1638871292.53125
3428,-11.69,1638871292.546875
3429,-15.02,1638871292.5625
3430,-15.82,1638871292.578125
3431,-14.08,1638871292.59375
3432,-9.59,1638871292.609375
3433,-2.04,1638871292.625
3434,8.68,1638871292.640625
3435,21.89,1638871292.65625
3436,35.9,1638871292.671875
3437,48.31,1638871292.6875
3438,56.75,1638871292.703125
3439,59.57,1638871292.71875
3440,56.25,1638871292.734375
3441,47.4,1638871292.75
3442,34.27,1638871292.765625
3443,18.49,1638871292.78125
3444,1.82,1638871292.796875
3445,-13.91,1638871292.8125
3446,-26.99,1638871292.828125
3447,-36.1,1638871292.84375
3448,-40.84,1638871292.859375
3449,-41.85,1638871292.875
3450,-40.68,1638871292.890625
3451,-39.27,1638871292.90625
3452,-39.24,1638871292.921875
3453,-41.39,1638871292.9375
3454,-45.57,1638871292.953125
3455,-50.92,1638871292.96875
3456,-56.23,1638871292.984375
3457,-60.34,1638871293.0
3458,-62.44,1638871293.015625
3459,-62.21,1638871293.03125
3460,-59.92,1638871293.046875
3461,-56.46,1638871293.0625
3462,-53.33,1638871293.078125
3463,-52.22,1638871293.09375
3464,-54.4,1638871293.109375
3465,-59.99,1638871293.125
3466,-67.62,1638871293.140625
3467,-74.86,1638871293.15625
3468,-79.23,1638871293.171875
3469,-79.48,1638871293.1875
3470,-76.27,1638871293.203125
3471,-71.74,1638871293.21875
3472,-68.21,1638871293.234375
3473,-66.71,1638871293.25
3474,-66.3,1638871293.265625
3475,-64.61,1638871293.28125
3476,-59.38,1638871293.296875
3477,-50.01,1638871293.3125
3478,-38.19,1638871293.328125
3479,-27.01,1638871293.34375
3480,-19.23,1638871293.359375
3481,-15.56,1638871293.375
3482,-14.03,1638871293.390625
3483,-10.86,1638871293.40625
3484,-2.23,1638871293.421875
3485,14.04,1638871293.4375
3486,37.71,1638871293.453125
3487,66.6,1638871293.46875
3488,97.81,1638871293.484375
3489,129.02,1638871293.5
3490,158.94,1638871293.515625
3491,186.95,1638871293.53125
3492,212.31,1638871293.546875
3493,233.48,1638871293.5625
3494,248.17,1638871293.578125
3495,254.07,1638871293.59375
3496,250.04,1638871293.609375
3497,236.85,1638871293.625
3498,217.34,1638871293.640625
3499,195.68,1638871293.65625
3500,176.18,1638871293.671875
3501,162.09,1638871293.6875
3502,154.82,1638871293.703125
3503,153.96,1638871293.71875
3504,157.88,1638871293.734375
3505,164.27,1638871293.75
3506,170.56,1638871293.765625
3507,173.76,1638871293.78125
3508,170.37,1638871293.796875
3509,156.67,1638871293.8125
3510,129.78,1638871293.828125
3511,89.03,1638871293.84375
3512,36.97,1638871293.859375
3513,-20.82,1638871293.875
3514,-77.28,1638871293.890625
3515,-126.16,1638871293.90625
3516,-163.93,1638871293.921875
3517,-190.44,1638871293.9375
3518,-208.08,1638871293.953125
3519,-219.92,1638871293.96875
3520,-228.13,1638871293.984375
3521,-233.22,1638871294.0
3522,-234.41,1638871294.015625
3523,-230.63,1638871294.03125
3524,-221.47,1638871294.046875
3525,-207.57,1638871294.0625
3526,-190.42,1638871294.078125
3527,-171.76,1638871294.09375
3528,-153.07,1638871294.109375
3529,-135.14,1638871294.125
3530,-118.21,1638871294.140625
3531,-102.15,1638871294.15625
3532,-86.8,1638871294.171875
3533,-72.09,1638871294.1875
3534,-58.03,1638871294.203125
3535,-44.61,1638871294.21875
3536,-31.74,1638871294.234375
3537,-19.32,1638871294.25
3538,-7.35,1638871294.265625
3539,3.89,1638871294.28125
3540,13.95,1638871294.296875
3541,22.25,1638871294.3125
3542,28.29,1638871294.328125
3543,31.82,1638871294.34375
3544,32.88,1638871294.359375
3545,31.79,1638871294.375
3546,29.09,1638871294.390625
3547,25.48,1638871294.40625
3548,21.67,1638871294.421875
3549,18.23,1638871294.4375
3550,15.44,1638871294.453125
3551,13.2,1638871294.46875
3552,11.07,1638871294.484375
3553,8.49,1638871294.5
3554,4.98,1638871294.515625
3555,0.34,1638871294.53125
3556,-5.31,1638871294.546875
3557,-11.55,1638871294.5625
3558,-17.78,1638871294.578125
3559,-23.35,1638871294.59375
3560,-27.7,1638871294.609375
3561,-30.51,1638871294.625
3562,-31.79,1638871294.640625
3563,-32.01,1638871294.65625
3564,-31.97,1638871294.671875
3565,-32.56,1638871294.6875
3566,-34.51,1638871294.703125
3567,-38.1,1638871294.71875
3568,-43.13,1638871294.734375
3569,-49.07,1638871294.75
3570,-55.29,1638871294.765625
3571,-61.32,1638871294.78125
3572,-66.93,1638871294.796875
3573,-72.23,1638871294.8125
3574,-77.51,1638871294.828125
3575,-83.26,1638871294.84375
3576,-90.02,1638871294.859375
3577,-98.18,1638871294.875
3578,-107.77,1638871294.890625
3579,-118.06,1638871294.90625
3580,-127.49,1638871294.921875
3581,-133.88,1638871294.9375
3582,-134.97,1638871294.953125
3583,-129.2,1638871294.96875
3584,-116.26,1638871294.984375
3585,-97.19,1638871295.0
3586,-74.12,1638871295.015625
3587,-49.57,1638871295.03125
3588,-25.85,1638871295.046875
3589,-4.67,1638871295.0625
3590,12.94,1638871295.078125
3591,26.54,1638871295.09375
3592,36.11,1638871295.109375
3593,42.02,1638871295.125
3594,44.91,1638871295.140625
3595,45.71,1638871295.15625
3596,45.42,1638871295.171875
3597,44.93,1638871295.1875
3598,44.79,1638871295.203125
3599,45.1,1638871295.21875
3600,45.56,1638871295.234375
3601,45.61,1638871295.25
3602,44.71,1638871295.265625
3603,42.49,1638871295.28125
3604,38.95,1638871295.296875
3605,34.36,1638871295.3125
3606,29.12,1638871295.328125
3607,23.52,1638871295.34375
3608,17.58,1638871295.359375
3609,11.14,1638871295.375
3610,3.96,1638871295.390625
3611,-3.96,1638871295.40625
3612,-12.27,1638871295.421875
3613,-20.26,1638871295.4375
3614,-27.15,1638871295.453125
3615,-32.33,1638871295.46875
3616,-35.51,1638871295.484375
3617,-36.72,1638871295.5
3618,-36.14,1638871295.515625
3619,-33.93,1638871295.53125
3620,-30.2,1638871295.546875
3621,-25.08,1638871295.5625
3622,-18.89,1638871295.578125
3623,-12.18,1638871295.59375
3624,-5.64,1638871295.609375
3625,0.11,1638871295.625
3626,4.73,1638871295.640625
3627,8.25,1638871295.65625
3628,10.98,1638871295.671875
3629,13.32,1638871295.6875
3630,15.62,1638871295.703125
3631,18.08,1638871295.71875
3632,20.73,1638871295.734375
3633,23.53,1638871295.75
3634,26.37,1638871295.765625
3635,29.1,1638871295.78125
3636,31.59,1638871295.796875
3637,33.84,1638871295.8125
3638,35.97,1638871295.828125
3639,38.21,1638871295.84375
3640,40.86,1638871295.859375
3641,44.07,1638871295.875
3642,47.81,1638871295.890625
3643,51.77,1638871295.90625
3644,55.57,1638871295.921875
3645,58.83,1638871295.9375
3646,61.3,1638871295.953125
3647,62.88,1638871295.96875
3648,63.56,1638871295.984375
3649,63.49,1638871296.0
3650,62.94,1638871296.015625
3651,62.41,1638871296.03125
3652,62.44,1638871296.046875
3653,63.4,1638871296.0625
3654,65.15,1638871296.078125
3655,66.93,1638871296.09375
3656,67.55,1638871296.109375
3657,65.82,1638871296.125
3658,61.18,1638871296.140625
3659,53.94,1638871296.15625
3660,45.12,1638871296.171875
3661,35.92,1638871296.1875
3662,27.07,1638871296.203125
3663,18.55,1638871296.21875
3664,9.59,1638871296.234375
3665,-0.79,1638871296.25
3666,-13.2,1638871296.265625
3667,-27.49,1638871296.28125
3668,-42.65,1638871296.296875
3669,-57.12,1638871296.3125
3670,-69.16,1638871296.328125
3671,-77.34,1638871296.34375
3672,-80.82,1638871296.359375
3673,-79.47,1638871296.375
3674,-73.85,1638871296.390625
3675,-64.94,1638871296.40625
3676,-53.86,1638871296.421875
3677,-41.57,1638871296.4375
3678,-28.8,1638871296.453125
3679,-16.06,1638871296.46875
3680,-3.77,1638871296.484375
3681,7.66,1638871296.5
3682,17.81,1638871296.515625
3683,26.31,1638871296.53125
3684,32.87,1638871296.546875
3685,37.3,1638871296.5625
3686,39.46,1638871296.578125
3687,39.41,1638871296.59375
3688,37.5,1638871296.609375
3689,34.47,1638871296.625
3690,31.48,1638871296.640625
3691,29.81,1638871296.65625
3692,30.38,1638871296.671875
3693,33.37,1638871296.6875
3694,38.05,1638871296.703125
3695,43.13,1638871296.71875
3696,47.38,1638871296.734375
3697,50.14,1638871296.75
3698,51.51,1638871296.765625
3699,52.05,1638871296.78125
3700,52.4,1638871296.796875
3701,52.82,1638871296.8125
3702,53.26,1638871296.828125
3703,53.48,1638871296.84375
3704,53.3,1638871296.859375
3705,52.66,1638871296.875
3706,51.37,1638871296.890625
3707,48.93,1638871296.90625
3708,44.57,1638871296.921875
3709,37.56,1638871296.9375
3710,27.67,1638871296.953125
3711,15.48,1638871296.96875
3712,2.26,1638871296.984375
3713,-10.44,1638871297.0
3714,-21.37,1638871297.015625
3715,-29.96,1638871297.03125
3716,-36.31,1638871297.046875
3717,-41.01,1638871297.0625
3718,-44.76,1638871297.078125
3719,-48.18,1638871297.09375
3720,-51.64,1638871297.109375
3721,-55.15,1638871297.125
3722,-58.42,1638871297.140625
3723,-60.84,1638871297.15625
3724,-61.68,1638871297.171875
3725,-60.29,1638871297.1875
3726,-56.36,1638871297.203125
3727,-50.13,1638871297.21875
3728,-42.4,1638871297.234375
3729,-34.3,1638871297.25
3730,-27.08,1638871297.265625
3731,-21.7,1638871297.28125
3732,-18.61,1638871297.296875
3733,-17.65,1638871297.3125
3734,-18.17,1638871297.328125
3735,-19.18,1638871297.34375
3736,-19.7,1638871297.359375
3737,-19.01,1638871297.375
3738,-16.79,1638871297.390625
3739,-13.23,1638871297.40625
3740,-8.91,1638871297.421875
3741,-4.64,1638871297.4375
3742,-1.22,1638871297.453125
3743,0.72,1638871297.46875
3744,0.85,1638871297.484375
3745,-0.85,1638871297.5
3746,-4.1,1638871297.515625
3747,-8.4,1638871297.53125
3748,-13.27,1638871297.546875
3749,-18.35,1638871297.5625
3750,-23.49,1638871297.578125
3751,-28.66,1638871297.59375
3752,-33.9,1638871297.609375
3753,-39.07,1638871297.625
3754,-43.87,1638871297.640625
3755,-47.89,1638871297.65625
3756,-50.8,1638871297.671875
3757,-52.51,1638871297.6875
3758,-53.2,1638871297.703125
3759,-53.18,1638871297.71875
3760,-52.68,1638871297.734375
3761,-51.7,1638871297.75
3762,-49.89,1638871297.765625
3763,-46.73,1638871297.78125
3764,-41.78,1638871297.796875
3765,-34.94,1638871297.8125
3766,-26.58,1638871297.828125
3767,-17.52,1638871297.84375
3768,-8.82,1638871297.859375
3769,-1.65,1638871297.875
3770,2.99,1638871297.890625
3771,4.48,1638871297.90625
3772,2.67,1638871297.921875
3773,-1.96,1638871297.9375
3774,-8.44,1638871297.953125
3775,-15.44,1638871297.96875
3776,-21.61,1638871297.984375
3777,-25.87,1638871298.0
3778,-27.67,1638871298.015625
3779,-26.97,1638871298.03125
3780,-24.14,1638871298.046875
3781,-19.79,1638871298.0625
3782,-14.56,1638871298.078125
3783,-8.99,1638871298.09375
3784,-3.49,1638871298.109375
3785,1.63,1638871298.125
3786,6.26,1638871298.140625
3787,10.36,1638871298.15625
3788,14.07,1638871298.171875
3789,17.57,1638871298.1875
3790,21.01,1638871298.203125
3791,24.48,1638871298.21875
3792,27.86,1638871298.234375
3793,30.88,1638871298.25
3794,33.15,1638871298.265625
3795,34.32,1638871298.28125
3796,34.1,1638871298.296875
3797,32.42,1638871298.3125
3798,29.39,1638871298.328125
3799,25.27,1638871298.34375
3800,20.41,1638871298.359375
3801,15.14,1638871298.375
3802,9.72,1638871298.390625
3803,4.3,1638871298.40625
3804,-1.1,1638871298.421875
3805,-6.51,1638871298.4375
3806,-12.01,1638871298.453125
3807,-17.63,1638871298.46875
3808,-23.38,1638871298.484375
3809,-29.24,1638871298.5
3810,-35.25,1638871298.515625
3811,-41.48,1638871298.53125
3812,-48.02,1638871298.546875
3813,-54.89,1638871298.5625
3814,-61.97,1638871298.578125
3815,-68.99,1638871298.59375
3816,-75.64,1638871298.609375
3817,-81.73,1638871298.625
3818,-87.23,1638871298.640625
3819,-92.22,1638871298.65625
3820,-96.74,1638871298.671875
3821,-100.61,1638871298.6875
3822,-103.37,1638871298.703125
3823,-104.34,1638871298.71875
3824,-102.93,1638871298.734375
3825,-98.77,1638871298.75
3826,-91.86,1638871298.765625
3827,-82.53,1638871298.78125
3828,-71.35,1638871298.796875
3829,-59.04,1638871298.8125
3830,-46.39,1638871298.828125
3831,-34.12,1638871298.84375
3832,-22.84,1638871298.859375
3833,-12.77,1638871298.875
3834,-3.69,1638871298.890625
3835,5.07,1638871298.90625
3836,14.29,1638871298.921875
3837,24.56,1638871298.9375
3838,35.89,1638871298.953125
3839,47.64,1638871298.96875
3840,58.7,1638871298.984375
3841,67.92,1638871299.0
3842,74.47,1638871299.015625
3843,78.1,1638871299.03125
3844,79.12,1638871299.046875
3845,78.14,1638871299.0625
3846,75.81,1638871299.078125
3847,72.67,1638871299.09375
3848,69.09,1638871299.109375
3849,65.4,1638871299.125
3850,61.99,1638871299.140625
3851,59.25,1638871299.15625
3852,57.53,1638871299.171875
3853,56.91,1638871299.1875
3854,57.16,1638871299.203125
3855,57.83,1638871299.21875
3856,58.38,1638871299.234375
3857,58.43,1638871299.25
3858,57.86,1638871299.265625
3859,56.77,1638871299.28125
3860,55.34,1638871299.296875
3861,53.7,1638871299.3125
3862,51.82,1638871299.328125
3863,49.61,1638871299.34375
3864,47.0,1638871299.359375
3865,44.01,1638871299.375
3866,40.72,1638871299.390625
3867,37.25,1638871299.40625
3868,33.67,1638871299.421875
3869,30.03,1638871299.4375
3870,26.44,1638871299.453125
3871,23.1,1638871299.46875
3872,20.33,1638871299.484375
3873,18.46,1638871299.5
3874,17.71,1638871299.515625
3875,18.15,1638871299.53125
3876,19.75,1638871299.546875
3877,22.48,1638871299.5625
3878,26.41,1638871299.578125
3879,31.62,1638871299.59375
3880,38.14,1638871299.609375
3881,45.77,1638871299.625
3882,54.02,1638871299.640625
3883,62.24,1638871299.65625
3884,69.79,1638871299.671875
3885,76.12,1638871299.6875
3886,80.83,1638871299.703125
3887,83.46,1638871299.71875
3888,83.45,1638871299.734375
3889,80.04,1638871299.75
3890,72.5,1638871299.765625
3891,60.39,1638871299.78125
3892,43.75,1638871299.796875
3893,23.32,1638871299.8125
3894,0.37,1638871299.828125
3895,-23.55,1638871299.84375
3896,-46.84,1638871299.859375
3897,-68.13,1638871299.875
3898,-86.34,1638871299.890625
3899,-100.78,1638871299.90625
3900,-111.03,1638871299.921875
3901,-116.93,1638871299.9375
3902,-118.54,1638871299.953125
3903,-116.07,1638871299.96875
3904,-109.83,1638871299.984375
3905,-100.17,1638871300.0
3906,-87.55,1638871300.015625
3907,-72.42,1638871300.03125
3908,-55.33,1638871300.046875
3909,-36.99,1638871300.0625
3910,-18.42,1638871300.078125
3911,-0.98,1638871300.09375
3912,13.68,1638871300.109375
3913,23.86,1638871300.125
3914,28.17,1638871300.140625
3915,25.95,1638871300.15625
3916,17.53,1638871300.171875
3917,4.23,1638871300.1875
3918,-11.95,1638871300.203125
3919,-28.91,1638871300.21875
3920,-45.04,1638871300.234375
3921,-59.61,1638871300.25
3922,-72.82,1638871300.265625
3923,-85.39,1638871300.28125
3924,-98.2,1638871300.296875
3925,-111.77,1638871300.3125
3926,-126.05,1638871300.328125
3927,-140.35,1638871300.34375
3928,-153.33,1638871300.359375
3929,-163.11,1638871300.375
3930,-167.4,1638871300.390625
3931,-164.0,1638871300.40625
3932,-151.36,1638871300.421875
3933,-129.42,1638871300.4375
3934,-99.94,1638871300.453125
3935,-66.39,1638871300.46875
3936,-33.01,1638871300.484375
3937,-3.58,1638871300.5
3938,19.61,1638871300.515625
3939,36.12,1638871300.53125
3940,47.06,1638871300.546875
3941,54.12,1638871300.5625
3942,58.84,1638871300.578125
3943,62.16,1638871300.59375
3944,64.48,1638871300.609375
3945,65.98,1638871300.625
3946,66.91,1638871300.640625
3947,67.58,1638871300.65625
3948,68.26,1638871300.671875
3949,68.99,1638871300.6875
3950,69.65,1638871300.703125
3951,69.97,1638871300.71875
3952,69.83,1638871300.734375
3953,69.29,1638871300.75
3954,68.57,1638871300.765625
3955,67.94,1638871300.78125
3956,67.51,1638871300.796875
3957,67.17,1638871300.8125
3958,66.6,1638871300.828125
3959,65.36,1638871300.84375
3960,63.01,1638871300.859375
3961,59.33,1638871300.875
3962,54.39,1638871300.890625
3963,48.58,1638871300.90625
3964,42.56,1638871300.921875
3965,36.96,1638871300.9375
3966,32.21,1638871300.953125
3967,28.34,1638871300.96875
3968,25.01,1638871300.984375
3969,21.74,1638871301.0
3970,18.14,1638871301.015625
3971,14.06,1638871301.03125
3972,9.72,1638871301.046875
3973,5.44,1638871301.0625
3974,1.54,1638871301.078125
3975,-1.88,1638871301.09375
3976,-4.99,1638871301.109375
3977,-8.11,1638871301.125
3978,-11.56,1638871301.140625
3979,-15.55,1638871301.15625
3980,-20.03,1638871301.171875
3981,-24.73,1638871301.1875
3982,-29.15,1638871301.203125
3983,-32.7,1638871301.21875
3984,-34.78,1638871301.234375
3985,-34.91,1638871301.25
3986,-32.9,1638871301.265625
3987,-28.9,1638871301.28125
3988,-23.37,1638871301.296875
3989,-17.04,1638871301.3125
3990,-10.68,1638871301.328125
3991,-4.97,1638871301.34375
3992,-0.3,1638871301.359375
3993,3.28,1638871301.375
3994,6.01,1638871301.390625
3995,8.24,1638871301.40625
3996,10.35,1638871301.421875
3997,12.54,1638871301.4375
3998,14.86,1638871301.453125
3999,17.24,1638871301.46875
4000,19.55,1638871301.484375
4001,21.72,1638871301.5
4002,23.7,1638871301.515625
4003,25.45,1638871301.53125
4004,26.88,1638871301.546875
4005,27.92,1638871301.5625
4006,28.47,1638871301.578125
4007,28.5,1638871301.59375
4008,28.13,1638871301.609375
4009,27.59,1638871301.625
4010,27.17,1638871301.640625
4011,27.13,1638871301.65625
4012,27.6,1638871301.671875
4013,28.52,1638871301.6875
4014,29.68,1638871301.703125
4015,30.76,1638871301.71875
4016,31.43,1638871301.734375
4017,31.49,1638871301.75
4018,30.91,1638871301.765625
4019,29.82,1638871301.78125
4020,28.38,1638871301.796875
4021,26.71,1638871301.8125
4022,24.84,1638871301.828125
4023,22.74,1638871301.84375
4024,20.36,1638871301.859375
4025,17.75,1638871301.875
4026,14.99,1638871301.890625
4027,12.2,1638871301.90625
4028,9.45,1638871301.921875
4029,6.75,1638871301.9375
4030,4.11,1638871301.953125
4031,1.6,1638871301.96875
4032,-0.72,1638871301.984375
4033,-2.79,1638871302.0
4034,-4.62,1638871302.015625
4035,-6.39,1638871302.03125
4036,-8.32,1638871302.046875
4037,-10.64,1638871302.0625
4038,-13.46,1638871302.078125
4039,-16.75,1638871302.09375
4040,-20.37,1638871302.109375
4041,-24.12,1638871302.125
4042,-27.8,1638871302.140625
4043,-31.15,1638871302.15625
4044,-33.87,1638871302.171875
4045,-35.57,1638871302.1875
4046,-35.88,1638871302.203125
4047,-34.56,1638871302.21875
4048,-31.63,1638871302.234375
4049,-27.4,1638871302.25
4050,-22.37,1638871302.265625
4051,-17.1,1638871302.28125
4052,-12.04,1638871302.296875
4053,-7.47,1638871302.3125
4054,-3.46,1638871302.328125
4055,0.05,1638871302.34375
4056,3.09,1638871302.359375
4057,5.67,1638871302.375
4058,7.78,1638871302.390625
4059,9.45,1638871302.40625
4060,10.76,1638871302.421875
4061,11.9,1638871302.4375
4062,13.02,1638871302.453125
4063,14.22,1638871302.46875
4064,15.46,1638871302.484375
4065,16.53,1638871302.5
4066,17.27,1638871302.515625
4067,17.57,1638871302.53125
4068,17.58,1638871302.546875
4069,17.55,1638871302.5625
4070,17.8,1638871302.578125
4071,18.48,1638871302.59375
4072,19.51,1638871302.609375
4073,20.65,1638871302.625
4074,21.62,1638871302.640625
4075,22.25,1638871302.65625
4076,22.52,1638871302.671875
4077,22.53,1638871302.6875
4078,22.36,1638871302.703125
4079,22.0,1638871302.71875
4080,21.4,1638871302.734375
4081,20.48,1638871302.75
4082,19.3,1638871302.765625
4083,18.0,1638871302.78125
4084,16.8,1638871302.796875
4085,15.85,1638871302.8125
4086,15.14,1638871302.828125
4087,14.5,1638871302.84375
4088,13.68,1638871302.859375
4089,12.43,1638871302.875
4090,10.71,1638871302.890625
4091,8.68,1638871302.90625
4092,6.63,1638871302.921875
4093,4.86,1638871302.9375
4094,3.5,1638871302.953125
4095,2.52,1638871302.96875
4096,1.69,1638871302.984375
4097,0.78,1638871303.0
4098,-0.43,1638871303.015625
4099,-2.03,1638871303.03125
4100,-3.98,1638871303.046875
4101,-6.24,1638871303.0625
4102,-8.7,1638871303.078125
4103,-11.25,1638871303.09375
4104,-13.77,1638871303.109375
4105,-16.16,1638871303.125
4106,-18.4,1638871303.140625
4107,-20.55,1638871303.15625
4108,-22.69,1638871303.171875
4109,-24.8,1638871303.1875
4110,-26.67,1638871303.203125
4111,-27.89,1638871303.21875
4112,-28.04,1638871303.234375
4113,-26.82,1638871303.25
4114,-24.25,1638871303.265625
4115,-20.63,1638871303.28125
4116,-16.47,1638871303.296875
4117,-12.3,1638871303.3125
4118,-8.51,1638871303.328125
4119,-5.32,1638871303.34375
4120,-2.76,1638871303.359375
4121,-0.75,1638871303.375
4122,0.84,1638871303.390625
4123,2.17,1638871303.40625
4124,3.43,1638871303.421875
4125,4.76,1638871303.4375
4126,6.27,1638871303.453125
4127,8.01,1638871303.46875
4128,9.84,1638871303.484375
4129,11.56,1638871303.5
4130,12.91,1638871303.515625
4131,13.73,1638871303.53125
4132,13.99,1638871303.546875
4133,13.86,1638871303.5625
4134,13.59,1638871303.578125
4135,13.46,1638871303.59375
4136,13.59,1638871303.609375
4137,13.97,1638871303.625
4138,14.46,1638871303.640625
4139,14.92,1638871303.65625
4140,15.25,1638871303.671875
4141,15.43,1638871303.6875
4142,15.48,1638871303.703125
4143,15.43,1638871303.71875
4144,15.26,1638871303.734375
4145,14.96,1638871303.75
4146,14.51,1638871303.765625
4147,13.92,1638871303.78125
4148,13.22,1638871303.796875
4149,12.44,1638871303.8125
4150,11.56,1638871303.828125
4151,10.55,1638871303.84375
4152,9.34,1638871303.859375
4153,7.89,1638871303.875
4154,6.21,1638871303.890625
4155,4.39,1638871303.90625
4156,2.65,1638871303.921875
4157,1.22,1638871303.9375
4158,0.34,1638871303.953125
4159,0.02,1638871303.96875
4160,0.12,1638871303.984375
4161,0.32,1638871304.0
4162,0.22,1638871304.015625
4163,-0.45,1638871304.03125
4164,-1.78,1638871304.046875
4165,-3.67,1638871304.0625
4166,-5.91,1638871304.078125
4167,-8.24,1638871304.09375
4168,-10.44,1638871304.109375
4169,-12.32,1638871304.125
4170,-13.74,1638871304.140625
4171,-14.7,1638871304.15625
4172,-15.28,1638871304.171875
4173,-15.75,1638871304.1875
4174,-16.45,1638871304.203125
4175,-17.71,1638871304.21875
4176,-19.68,1638871304.234375
4177,-22.26,1638871304.25
4178,-25.04,1638871304.265625
4179,-27.48,1638871304.28125
4180,-29.01,1638871304.296875
4181,-29.21,1638871304.3125
4182,-27.9,1638871304.328125
4183,-25.16,1638871304.34375
4184,-21.35,1638871304.359375
4185,-16.95,1638871304.375
4186,-12.49,1638871304.390625
4187,-8.44,1638871304.40625
4188,-5.17,1638871304.421875
4189,-2.84,1638871304.4375
4190,-1.4,1638871304.453125
4191,-0.62,1638871304.46875
4192,-0.12,1638871304.484375
4193,0.44,1638871304.5
4194,1.29,1638871304.515625
4195,2.46,1638871304.53125
4196,3.85,1638871304.546875
4197,5.25,1638871304.5625
4198,6.51,1638871304.578125
4199,7.52,1638871304.59375
4200,8.24,1638871304.609375
4201,8.7,1638871304.625
4202,8.92,1638871304.640625
4203,8.95,1638871304.65625
4204,8.88,1638871304.671875
4205,8.83,1638871304.6875
4206,8.89,1638871304.703125
4207,9.16,1638871304.71875
4208,9.6,1638871304.734375
4209,10.15,1638871304.75
4210,10.7,1638871304.765625
4211,11.17,1638871304.78125
4212,11.54,1638871304.796875
4213,11.75,1638871304.8125
4214,11.75,1638871304.828125
4215,11.5,1638871304.84375
4216,10.96,1638871304.859375
4217,10.23,1638871304.875
4218,9.48,1638871304.890625
4219,8.89,1638871304.90625
4220,8.62,1638871304.921875
4221,8.69,1638871304.9375
4222,8.97,1638871304.953125
4223,9.23,1638871304.96875
4224,9.23,1638871304.984375
4225,8.8,1638871305.0
4226,7.9,1638871305.015625
4227,6.64,1638871305.03125
4228,5.18,1638871305.046875
4229,3.7,1638871305.0625
4230,2.33,1638871305.078125
4231,1.18,1638871305.09375
4232,0.26,1638871305.109375
4233,-0.41,1638871305.125
4234,-0.91,1638871305.140625
